age,experience,fg_per_game,fga_per_game,x3p_per_game,x3pa_per_game,x2p_per_game,x2pa_per_game,ft_per_game,fta_per_game,orb_per_game,drb_per_game,trb_per_game,ast_per_game,stl_per_game,blk_per_game,tov_per_game,pf_per_game,pts_per_game
24.0,2,1.0,3.0,1.0,2.5,0.0,0.5,0.5,0.5,0.0,0.5,0.5,1.0,0.0,0.0,0.0,1.5,3.5
20.0,2,1.5,2.5,1.3,2.0,0.3,0.5,0.0,0.0,0.3,1.0,1.3,0.5,0.3,0.0,0.5,0.3,4.3
28.0,10,6.5,10.3,0.3,1.0,6.3,9.3,0.5,2.0,1.8,3.0,4.8,3.0,1.5,1.3,1.3,1.5,13.8
27.0,6,0.0,3.0,0.0,1.0,0.0,2.0,0.0,0.0,0.0,0.0,0.0,0.0,0.0,0.0,0.0,0.0,0.0
24.0,4,4.3,8.3,2.3,5.3,2.0,3.0,1.7,2.0,1.7,4.3,6.0,1.3,0.0,1.0,0.3,3.3,12.7
25.0,3,1.0,2.0,0.0,0.7,1.0,1.3,0.3,0.7,0.3,0.7,1.0,0.3,0.0,0.3,0.7,0.7,2.3
37.0,17,2.3,6.3,0.7,2.7,1.7,3.7,0.0,0.0,3.3,4.0,7.3,1.7,0.7,0.3,2.0,1.3,5.3
32.0,13,4.3,9.8,3.5,6.5,0.8,3.3,3.0,3.8,0.3,3.0,3.3,2.3,0.3,0.8,0.0,1.5,15.0
22.0,4,0.0,1.3,0.0,1.3,0.0,0.0,0.3,0.7,0.0,1.0,1.0,0.0,0.0,0.3,1.0,1.0,0.3
29.0,7,2.8,5.3,1.0,2.8,1.8,2.5,0.8,1.5,2.3,3.8,6.0,3.0,2.0,0.8,1.0,2.5,7.3
30.0,11,0.0,0.0,0.0,0.0,0.0,0.0,0.0,0.0,0.0,0.0,0.0,0.0,0.0,0.0,0.0,0.0,0.0
21.0,3,8.0,14.7,0.7,2.0,7.3,12.7,2.7,4.7,4.0,5.0,9.0,6.7,0.7,0.3,2.3,4.3,19.3
21.0,1,2.7,6.3,0.7,3.3,2.0,3.0,1.0,2.0,0.3,3.0,3.3,1.7,0.3,0.3,1.7,2.0,7.0
26.0,5,0.0,0.7,0.0,0.0,0.0,0.7,0.7,0.7,0.0,0.3,0.3,0.7,0.0,0.0,0.7,0.3,0.7
30.0,12,2.3,5.0,0.0,0.0,2.3,5.0,0.8,1.0,2.5,1.3,3.8,1.3,1.3,0.3,1.0,0.8,5.3
22.0,1,0.0,1.0,0.0,1.0,0.0,0.0,0.0,0.0,1.0,3.0,4.0,1.0,1.0,0.0,1.0,2.0,0.0
24.0,2,3.7,7.0,0.0,2.3,3.7,4.7,0.0,0.0,0.3,2.0,2.3,5.3,1.3,0.0,2.3,4.0,7.3
28.0,10,4.3,10.8,0.5,2.8,3.8,8.0,1.8,3.0,0.8,1.5,2.3,0.8,0.0,0.8,1.8,2.8,10.8
24.0,6,6.0,14.0,2.0,6.0,4.0,8.0,4.0,4.0,1.0,1.0,2.0,4.0,2.0,0.0,0.0,2.0,18.0
20.0,1,1.0,1.0,0.0,0.0,1.0,1.0,0.5,0.5,0.0,0.0,0.0,1.0,0.0,1.0,0.0,0.5,2.5
30.0,12,9.8,18.5,0.8,1.8,9.0,16.8,5.5,6.3,3.0,10.8,13.8,3.3,1.5,2.8,1.3,3.3,25.8
22.0,4,9.3,21.0,4.0,6.7,5.3,14.3,2.7,3.0,1.7,5.3,7.0,5.0,0.3,0.0,3.0,2.7,25.3
31.0,4,1.0,3.0,0.0,0.0,1.0,3.0,3.0,4.0,0.0,2.0,2.0,1.0,0.0,0.0,0.0,2.0,5.0
21.0,1,3.0,9.3,0.3,1.8,2.8,7.5,2.3,3.0,4.3,6.3,10.5,4.3,0.5,2.5,2.5,3.5,8.5
25.0,3,3.5,10.5,1.0,4.0,2.5,6.5,2.0,2.8,1.3,2.5,3.8,2.5,1.0,0.3,2.3,2.3,10.0
24.0,3,1.8,4.3,0.8,2.0,1.0,2.3,0.0,0.0,0.5,0.8,1.3,1.0,0.5,0.3,0.3,0.5,4.3
26.0,7,8.0,16.7,0.0,0.3,8.0,16.3,6.7,9.7,2.0,4.0,6.0,2.3,0.3,1.3,3.0,2.7,22.7
22.0,1,0.0,1.0,0.0,0.0,0.0,1.0,0.0,0.0,0.0,0.0,0.0,0.0,0.0,0.0,0.0,0.0,0.0
27.0,6,4.0,6.7,0.0,0.0,4.0,6.7,0.3,0.7,2.7,7.3,10.0,8.3,0.7,1.3,2.0,2.0,8.3
21.0,2,5.0,12.0,1.3,4.3,3.7,7.7,4.0,4.3,0.3,2.3,2.7,2.0,0.7,0.0,1.3,2.0,15.3
19.0,1,1.7,5.7,0.7,2.7,1.0,3.0,0.0,0.0,0.7,2.7,3.3,1.3,0.3,2.0,1.7,0.7,4.0
20.0,2,0.0,1.0,0.0,1.0,0.0,0.0,1.0,2.0,0.0,0.0,0.0,1.0,0.0,1.0,1.0,0.0,1.0
35.0,9,2.0,2.0,0.0,0.0,2.0,2.0,0.0,0.0,0.0,0.0,0.0,1.0,0.0,0.0,0.0,1.0,4.0
28.0,9,5.7,9.3,0.0,1.3,5.7,8.0,1.3,2.7,1.7,4.3,6.0,2.0,0.7,0.7,1.0,2.7,12.7
31.0,7,4.5,10.0,2.8,7.0,1.8,3.0,0.3,0.3,0.0,1.8,1.8,4.3,1.8,0.0,1.3,1.5,12.0
24.0,5,0.0,0.0,0.0,0.0,0.0,0.0,0.0,0.0,0.0,1.0,1.0,0.0,0.0,1.0,2.0,0.0,0.0
23.0,3,6.0,12.3,3.3,7.0,2.8,5.3,0.8,1.0,0.0,1.3,1.3,2.0,0.8,0.0,2.5,2.8,16.0
20.0,1,2.0,5.0,0.0,1.0,2.0,4.0,1.0,2.0,1.0,7.0,8.0,2.0,0.0,0.0,2.0,4.0,5.0
26.0,8,9.0,17.5,0.5,3.0,8.5,14.5,4.0,5.0,1.0,6.0,7.0,4.5,1.5,0.0,5.0,3.5,22.5
21.0,1,6.0,12.7,2.3,5.3,3.7,7.3,3.0,3.3,2.0,4.0,6.0,2.0,0.3,0.7,1.3,3.3,17.3
26.0,3,0.5,1.0,0.0,0.5,0.5,0.5,0.0,0.0,0.0,0.5,0.5,0.0,0.0,0.0,0.0,0.0,1.0
20.0,1,0.0,2.0,0.0,0.0,0.0,2.0,0.0,0.0,1.0,1.0,2.0,0.0,0.0,0.0,0.0,0.0,0.0
35.0,16,5.0,9.0,2.0,4.3,3.0,4.7,0.3,0.3,1.7,2.3,4.0,1.3,0.7,0.3,1.3,2.3,12.3
27.0,6,5.7,10.3,3.0,5.0,2.7,5.3,0.7,0.7,1.0,3.7,4.7,1.3,1.0,0.0,1.3,2.7,15.0
25.0,5,0.0,0.5,0.0,0.5,0.0,0.0,0.0,0.0,0.0,0.0,0.0,0.0,0.0,0.0,1.0,0.5,0.0
31.0,8,4.3,11.0,3.0,7.3,1.3,3.7,0.0,0.0,1.0,1.7,2.7,4.3,0.3,0.7,1.3,0.3,11.7
32.0,11,6.3,16.0,3.3,8.7,3.0,7.3,2.3,3.3,1.0,3.3,4.3,6.0,2.3,0.3,1.0,2.0,18.3
22.0,3,7.8,18.5,2.5,6.3,5.3,12.3,3.0,3.5,0.3,2.5,2.8,7.5,0.5,0.3,5.3,3.8,21.0
21.0,2,1.5,3.5,1.0,3.0,0.5,0.5,0.5,0.5,0.0,0.5,0.5,0.0,0.0,0.0,0.0,0.0,4.5
28.0,5,1.0,7.0,0.0,3.0,1.0,4.0,0.0,0.0,1.0,2.0,3.0,1.0,1.0,0.0,0.0,1.0,2.0
24.0,5,1.0,3.0,0.3,1.8,0.8,1.3,0.5,0.5,0.5,1.5,2.0,0.5,0.3,0.3,0.5,1.0,2.8
22.0,3,11.7,19.0,1.3,4.3,10.3,14.7,8.3,10.0,0.0,4.0,4.0,2.0,0.7,0.3,1.0,2.0,33.0
19.0,1,0.0,4.0,0.0,2.0,0.0,2.0,0.0,0.0,0.0,1.0,1.0,0.0,0.0,0.0,1.0,0.0,0.0
27.0,5,5.0,10.0,1.0,4.0,4.0,6.0,1.0,2.0,2.0,3.0,5.0,3.0,2.0,0.0,2.0,1.0,12.0
29.0,9,2.3,3.7,1.7,2.7,0.7,1.0,0.0,0.0,0.3,0.3,0.7,0.3,0.3,0.0,0.7,2.3,6.3
29.0,8,7.7,20.3,3.3,9.0,4.3,11.3,1.0,3.0,0.7,2.7,3.3,5.0,1.0,0.7,1.0,1.3,19.7
20.0,1,3.0,3.5,1.3,1.5,1.8,2.0,1.0,1.0,0.5,2.3,2.8,1.0,0.3,0.5,0.5,1.5,8.3
28.0,7,4.5,7.8,2.3,4.5,2.3,3.3,0.5,0.8,0.0,1.3,1.3,1.3,0.5,0.5,0.8,1.0,11.8
23.0,3,1.3,1.8,0.0,0.0,1.3,1.8,0.0,0.0,1.0,3.0,4.0,1.0,0.5,0.5,0.5,1.8,2.5
21.0,1,5.0,8.3,2.5,4.0,2.5,4.3,2.5,3.3,0.8,5.5,6.3,2.0,1.0,2.8,1.5,3.3,15.0
26.0,6,1.0,2.0,0.0,0.0,1.0,2.0,0.0,0.0,0.0,1.0,1.0,1.0,0.0,0.0,0.0,0.0,2.0
31.0,7,1.7,4.7,0.0,0.7,1.7,4.0,3.0,3.3,1.7,4.0,5.7,0.3,0.3,0.3,1.0,2.3,6.3
26.0,3,2.0,5.3,1.0,3.3,1.0,2.0,0.7,1.0,0.3,1.3,1.7,1.3,0.7,0.0,0.3,4.0,5.7
38.0,19,4.5,11.3,0.3,4.0,4.3,7.3,2.0,2.3,0.3,4.5,4.8,8.3,2.0,0.0,1.5,0.8,11.3
22.0,2,3.0,7.0,0.5,2.3,2.5,4.8,1.5,2.3,1.0,4.5,5.5,3.3,0.8,0.5,0.8,1.0,8.0
28.0,8,2.8,5.0,0.8,2.3,2.0,2.8,2.3,3.3,1.0,6.0,7.0,1.3,0.0,0.8,1.3,1.5,8.5
25.0,4,0.5,1.0,0.0,0.5,0.5,0.5,0.0,0.0,0.5,1.5,2.0,0.0,0.0,0.0,0.5,0.0,1.0
29.0,10,4.3,8.8,0.0,0.0,4.3,8.8,2.0,2.5,3.8,7.0,10.8,1.0,0.5,1.5,1.0,2.0,10.5
23.0,5,3.0,9.8,1.3,5.0,1.8,4.8,2.5,2.8,0.3,3.3,3.5,4.0,0.5,0.0,1.3,2.5,9.8
31.0,11,0.0,1.5,0.0,0.0,0.0,1.5,0.0,1.0,0.5,1.0,1.5,0.0,0.0,0.0,0.0,0.0,0.0
21.0,1,0.0,0.0,0.0,0.0,0.0,0.0,0.0,0.0,0.0,0.5,0.5,0.0,0.0,0.0,0.0,0.0,0.0
23.0,4,5.3,11.3,1.3,3.5,4.0,7.8,3.3,4.8,0.5,3.8,4.3,1.8,0.8,0.3,0.8,2.5,15.0
24.0,2,2.0,3.0,1.0,2.0,1.0,1.0,0.0,0.0,0.0,1.0,1.0,0.0,0.0,0.0,0.0,0.0,5.0
24.0,1,0.0,0.5,0.0,0.5,0.0,0.0,0.0,0.0,0.0,0.0,0.0,0.0,0.5,0.0,0.0,0.5,0.0
25.0,6,4.0,9.8,0.5,2.3,3.5,7.5,3.5,4.3,0.3,1.3,1.5,1.5,0.0,0.0,1.5,2.3,12.0
24.0,3,5.0,10.3,3.0,7.0,2.0,3.3,1.0,1.7,0.7,2.7,3.3,0.7,0.0,0.0,1.7,1.3,14.0
32.0,13,0.0,0.5,0.0,0.5,0.0,0.0,0.0,0.0,0.5,0.5,1.0,1.0,0.0,0.0,0.0,1.0,0.0
23.0,1,2.5,6.0,0.0,0.5,2.5,5.5,0.0,0.0,0.5,1.5,2.0,1.5,1.0,0.5,1.5,1.5,5.0
27.0,9,6.3,13.8,1.8,5.8,4.5,8.0,3.3,3.8,0.0,3.3,3.3,7.3,1.0,0.5,2.3,3.3,17.5
26.0,4,1.0,1.5,0.5,1.0,0.5,0.5,0.0,0.0,0.0,0.5,0.5,0.0,0.0,0.0,0.0,0.5,2.5
21.0,3,0.0,0.0,0.0,0.0,0.0,0.0,0.0,0.0,0.0,0.0,0.0,0.0,0.0,0.0,0.0,0.0,0.0
24.0,3,1.0,3.0,0.0,1.0,1.0,2.0,0.0,0.0,2.0,0.0,2.0,1.0,0.0,0.0,1.0,1.0,2.0
21.0,2,0.5,1.5,0.5,1.0,0.0,0.5,0.0,0.0,0.0,1.0,1.0,0.5,0.0,0.0,0.0,0.0,1.5
28.0,8,0.8,0.8,0.0,0.0,0.8,0.8,0.3,0.5,0.5,1.3,1.8,0.5,0.0,0.3,0.5,0.8,1.8
33.0,12,6.0,15.3,2.7,9.0,3.3,6.3,8.7,9.3,0.7,5.0,5.7,4.3,1.0,0.0,3.3,2.0,23.3
25.0,5,2.5,3.0,0.0,0.0,2.5,3.0,3.0,5.0,2.5,5.5,8.0,0.0,0.0,2.0,0.5,3.5,8.0
35.0,14,2.3,5.0,0.7,1.7,1.7,3.3,2.7,3.0,0.7,1.0,1.7,1.0,0.7,0.0,0.3,0.3,8.0
36.0,15,0.0,1.0,0.0,0.5,0.0,0.5,0.0,0.0,0.0,1.0,1.0,0.5,0.5,0.0,0.0,0.5,0.0
28.0,7,1.0,2.3,0.0,0.7,1.0,1.7,0.3,0.3,0.0,1.7,1.7,0.7,0.3,0.3,0.0,0.3,2.3
30.0,8,1.0,2.5,0.0,1.0,1.0,1.5,0.0,0.0,0.5,1.5,2.0,1.0,0.5,0.5,0.5,0.5,2.0
29.0,7,2.0,7.3,1.0,3.5,1.0,3.8,0.5,1.0,3.0,4.3,7.3,2.3,0.3,1.0,0.5,2.3,5.5
24.0,5,6.0,12.0,1.0,5.0,5.0,7.0,2.0,2.0,1.0,1.0,2.0,5.0,2.0,0.0,6.0,2.0,15.0
22.0,2,3.3,6.8,1.0,2.5,2.3,4.3,0.5,0.8,0.5,4.0,4.5,2.0,0.3,0.5,1.0,2.5,8.0
25.0,3,0.7,3.0,0.3,1.7,0.3,1.3,0.0,0.0,0.0,1.7,1.7,2.0,0.3,0.0,1.0,2.7,1.7
22.0,3,2.7,4.3,0.0,0.0,2.7,4.3,0.3,1.0,2.3,2.3,4.7,0.3,0.3,1.0,2.0,2.7,5.7
26.0,7,11.3,23.3,3.0,8.0,8.3,15.3,5.7,7.0,1.0,3.3,4.3,6.0,1.3,0.7,2.7,4.0,31.3
26.0,5,6.0,10.5,2.3,5.0,3.8,5.5,2.5,3.0,0.8,3.5,4.3,1.3,1.3,0.3,0.5,3.0,16.8
25.0,6,2.7,8.7,1.0,4.0,1.7,4.7,1.7,1.7,0.3,2.7,3.0,5.3,1.7,0.3,1.3,2.0,8.0
34.0,15,8.3,18.5,0.5,2.0,7.8,16.5,6.3,8.0,1.3,2.3,3.5,3.3,1.5,1.3,0.8,2.0,23.3
27.0,5,1.7,5.3,1.3,4.7,0.3,0.7,0.0,0.0,0.7,3.0,3.7,1.3,0.7,0.3,0.7,2.7,4.7
25.0,6,4.3,7.3,0.0,0.0,4.3,7.3,0.3,0.3,4.0,10.8,14.8,1.5,1.5,1.0,1.5,3.3,8.8
27.0,7,8.5,16.8,1.0,4.0,7.5,12.8,3.3,3.8,0.5,3.8,4.3,5.5,1.3,0.5,2.0,0.5,21.3
31.0,9,1.0,4.3,0.3,0.7,0.7,3.7,1.3,1.7,0.3,3.0,3.3,5.0,1.7,0.3,0.3,0.3,3.7
23.0,4,4.0,8.7,1.0,2.0,3.0,6.7,1.0,1.3,2.0,4.7,6.7,2.7,1.3,0.0,1.0,2.0,10.0
30.0,11,5.0,13.0,2.8,5.5,2.3,7.5,1.5,2.0,1.0,1.5,2.5,8.8,0.8,0.0,1.5,1.0,14.3
26.0,7,1.7,4.0,0.7,1.3,1.0,2.7,0.3,0.7,1.0,2.0,3.0,1.3,0.3,0.0,1.0,2.3,4.3
19.0,1,4.0,4.7,0.0,0.0,4.0,4.7,1.0,1.7,2.3,3.7,6.0,0.3,0.3,1.0,0.7,3.0,9.0
26.0,8,3.0,6.0,1.3,3.3,1.7,2.7,1.7,2.7,0.0,2.0,2.0,0.3,0.0,0.0,1.0,0.3,9.0
35.0,15,3.0,9.3,1.3,2.5,1.8,6.8,0.8,1.0,1.0,1.0,2.0,2.8,0.5,0.3,1.5,0.8,8.0
29.0,7,5.0,8.0,2.3,4.0,2.7,4.0,2.7,3.3,1.3,3.0,4.3,4.3,1.7,1.7,1.7,1.7,15.0
25.0,4,9.3,19.0,3.3,9.3,6.0,9.8,3.8,4.3,1.0,3.0,4.0,4.0,2.0,0.5,2.8,2.8,25.5
27.0,9,13.0,21.0,3.0,8.0,10.0,13.0,3.0,3.0,1.0,5.0,6.0,8.0,1.0,0.0,6.0,4.0,32.0
23.0,4,7.3,14.3,2.0,6.0,5.3,8.3,3.5,4.8,0.5,3.3,3.8,2.5,1.5,0.0,2.0,1.0,20.0
28.0,7,5.3,10.0,2.3,4.3,3.0,5.7,1.3,1.3,0.0,3.3,3.3,2.0,0.7,0.0,1.3,4.3,14.3
27.0,8,6.7,12.3,0.7,1.7,6.0,10.7,3.7,5.3,3.7,11.3,15.0,5.7,1.7,0.7,2.3,3.3,17.7
20.0,2,0.0,0.0,0.0,0.0,0.0,0.0,0.0,0.0,0.0,0.0,0.0,0.0,0.0,0.0,0.0,0.0,0.0
27.0,7,12.3,22.7,2.7,8.0,9.7,14.7,4.7,5.3,1.7,3.7,5.3,4.7,3.3,1.0,2.3,1.3,32.0
27.0,6,2.3,6.0,1.3,4.0,1.0,2.0,0.3,0.5,0.8,2.0,2.8,2.5,1.0,0.3,1.3,2.3,6.0
30.0,8,5.0,9.3,3.3,7.3,1.7,2.0,0.3,1.0,1.0,5.3,6.3,2.0,0.3,0.7,2.0,2.0,13.7
32.0,10,2.0,3.8,1.5,2.8,0.5,1.0,0.0,0.0,0.0,1.3,1.3,1.0,0.3,0.3,0.0,1.3,5.5
33.0,12,2.5,6.0,0.0,1.0,2.5,5.0,0.0,0.5,1.0,4.5,5.5,6.0,0.0,0.5,2.5,2.5,5.0
26.0,6,2.3,3.8,0.0,0.0,2.3,3.8,0.8,1.5,1.5,4.8,6.3,2.5,0.3,1.8,1.8,2.5,5.3
26.0,2,2.0,4.0,1.3,2.0,0.7,2.0,0.0,0.0,0.3,0.7,1.0,2.7,1.3,0.3,0.7,1.3,5.3
29.0,6,4.5,9.8,2.8,7.0,1.8,2.8,0.0,0.0,0.8,1.0,1.8,0.8,0.3,0.0,0.3,2.3,11.8
32.0,10,2.0,2.0,0.5,0.5,1.5,1.5,1.0,1.0,2.0,1.5,3.5,0.0,0.5,2.0,0.5,0.5,5.5
27.0,4,0.5,1.0,0.5,1.0,0.0,0.0,0.0,0.0,0.0,0.5,0.5,0.5,0.0,0.0,0.0,0.5,1.5
20.0,2,2.3,6.0,0.3,2.0,2.0,4.0,0.0,1.3,0.7,3.7,4.3,2.0,1.0,0.3,1.0,2.3,5.0
31.0,8,1.0,2.0,1.0,2.0,0.0,0.0,3.0,3.0,0.0,1.0,1.0,0.0,0.0,0.0,0.0,1.0,6.0
23.0,1,0.0,1.0,0.0,1.0,0.0,0.0,0.0,0.0,0.0,2.0,2.0,0.0,0.0,0.0,0.0,0.0,0.0
20.0,1,1.5,4.5,1.0,3.0,0.5,1.5,0.5,1.0,0.5,2.5,3.0,0.5,0.0,0.5,0.5,0.5,4.5
35.0,16,6.8,15.0,2.8,8.3,4.0,6.8,0.3,0.3,0.5,2.0,2.5,2.8,0.5,0.3,1.8,1.5,16.5
26.0,3,3.5,4.0,0.5,0.5,3.0,3.5,1.5,2.0,2.0,2.0,4.0,1.0,0.5,0.5,0.5,0.0,9.0
22.0,3,6.3,13.5,0.3,0.3,6.0,13.3,3.0,4.0,3.0,8.8,11.8,3.0,0.0,2.3,1.5,2.8,15.8
23.0,1,0.0,0.0,0.0,0.0,0.0,0.0,0.0,0.0,0.0,1.0,1.0,0.0,0.0,0.0,0.0,0.0,0.0
22.0,3,5.5,14.5,2.5,7.5,3.0,7.0,4.5,4.8,1.5,4.8,6.3,3.0,1.0,0.5,2.8,2.8,18.0
29.0,8,5.7,15.3,2.7,7.7,3.0,7.7,1.3,1.7,0.0,3.0,3.0,7.0,1.0,0.0,2.0,2.3,15.3
26.0,7,1.0,1.0,1.0,1.0,0.0,0.0,1.0,2.0,0.0,0.0,0.0,0.0,0.0,0.0,0.0,0.0,4.0
27.0,5,2.8,7.0,0.3,3.5,2.5,3.5,0.3,0.5,0.5,0.5,1.0,3.0,1.5,0.0,0.5,2.5,6.0
29.0,10,3.8,6.0,2.3,4.0,1.5,2.0,0.3,0.8,1.0,1.8,2.8,1.5,0.3,0.3,1.0,0.3,10.0
31.0,8,3.0,6.8,1.5,3.8,1.5,3.0,0.8,1.0,0.5,2.0,2.5,1.3,2.0,0.5,0.5,2.3,8.3
25.0,6,3.8,11.5,1.8,5.0,2.0,6.5,1.0,2.8,0.8,1.8,2.5,1.3,1.3,0.3,0.5,1.5,10.3
30.0,8,2.0,7.8,1.0,5.3,1.0,2.5,0.0,0.0,0.8,2.3,3.0,1.0,0.0,0.3,0.8,2.8,5.0
29.0,11,10.3,18.7,0.3,2.3,10.0,16.3,6.3,10.0,3.3,6.7,10.0,2.7,1.0,1.7,4.0,3.0,27.3
24.0,5,0.7,0.7,0.0,0.0,0.7,0.7,1.3,2.0,0.7,0.7,1.3,1.0,0.3,0.0,0.3,0.3,2.7
33.0,14,5.3,11.3,1.3,2.3,4.0,9.0,2.7,3.3,1.3,4.3,5.7,5.3,2.0,0.7,3.0,2.3,14.7
20.0,1,1.8,4.5,1.0,2.8,0.8,1.8,0.5,0.5,0.8,1.5,2.3,0.5,0.5,0.0,0.3,2.3,5.0
25.0,5,4.0,8.3,3.0,6.7,1.0,1.7,1.3,1.7,0.7,4.3,5.0,0.7,0.0,0.3,2.0,3.3,12.3
28.0,6,3.3,7.8,2.5,5.8,0.8,2.0,1.5,1.5,1.3,4.0,5.3,3.0,0.5,0.3,1.5,2.3,10.5
19.0,1,0.0,0.0,0.0,0.0,0.0,0.0,0.0,0.0,0.0,0.0,0.0,0.0,0.0,0.0,0.0,0.0,0.0
31.0,12,6.0,10.0,2.0,4.3,4.0,5.7,3.0,4.0,0.3,3.0,3.3,1.7,0.7,0.3,0.3,1.3,17.0
25.0,3,3.0,6.3,1.3,3.0,1.7,3.3,1.7,2.3,1.0,3.0,4.0,1.7,1.0,1.7,1.3,4.0,9.0
23.0,1,0.0,0.0,0.0,0.0,0.0,0.0,0.0,0.0,0.0,1.0,1.0,0.0,0.0,0.0,0.0,1.0,0.0
24.0,4,5.3,11.3,2.3,6.3,3.0,5.0,3.0,3.3,0.5,3.5,4.0,3.3,0.5,0.0,2.8,2.0,15.8
23.0,4,4.5,9.3,1.3,3.0,3.3,6.3,2.3,3.3,3.0,3.3,6.3,2.3,1.0,0.8,1.0,3.3,12.5
25.0,6,3.0,4.8,0.0,0.5,3.0,4.3,2.0,3.3,2.8,2.3,5.0,1.3,0.8,0.5,0.8,3.0,8.0
22.0,3,2.0,4.0,0.0,0.0,2.0,4.0,0.0,0.0,1.0,3.0,4.0,0.0,0.0,0.0,0.0,2.0,4.0
24.0,4,2.8,7.8,2.0,5.5,0.8,2.3,0.8,1.3,0.3,2.3,2.5,1.3,1.3,0.0,1.3,1.8,8.3
24.0,2,0.0,0.0,0.0,0.0,0.0,0.0,0.0,0.0,0.0,1.0,1.0,0.0,0.0,0.0,0.0,1.0,0.0
22.0,4,5.5,11.3,1.5,3.5,4.0,7.8,1.3,1.8,2.3,7.0,9.3,1.0,0.0,0.3,2.3,3.0,13.8
26.0,8,5.3,7.8,0.0,0.0,5.3,7.8,2.3,3.8,2.3,5.5,7.8,0.3,0.0,2.0,1.3,2.5,12.8
21.0,3,2.0,5.3,0.7,2.7,1.3,2.7,0.0,0.0,0.7,2.0,2.7,1.3,0.3,0.3,0.3,0.7,4.7
36.0,16,3.0,4.0,0.0,0.0,3.0,4.0,0.3,1.0,0.7,1.0,1.7,0.3,0.3,0.7,1.0,0.3,6.3
20.0,2,4.7,12.3,1.3,6.0,3.3,6.3,0.7,2.0,2.3,5.0,7.3,2.0,1.3,0.0,1.3,4.3,11.3
21.0,2,2.5,4.5,0.5,1.3,2.0,3.3,2.3,2.5,1.3,2.5,3.8,0.3,1.0,0.5,1.3,2.3,7.8
25.0,2,0.0,1.0,0.0,0.0,0.0,1.0,0.0,0.0,0.0,0.0,0.0,0.0,0.0,0.0,0.0,0.0,0.0
21.0,2,2.0,6.0,2.0,4.0,0.0,2.0,0.0,0.0,0.0,0.0,0.0,1.0,0.0,0.0,1.0,1.0,6.0
21.0,2,4.8,10.0,1.8,4.0,3.0,6.0,1.0,1.3,0.3,1.3,1.5,3.3,0.8,0.3,2.0,3.0,12.3
23.0,4,5.0,6.0,2.0,2.0,3.0,4.0,0.0,0.0,0.0,3.0,3.0,2.0,0.0,1.0,0.0,2.0,12.0
21.0,3,0.5,2.0,0.0,0.5,0.5,1.5,0.0,0.0,0.5,0.5,1.0,1.0,0.0,1.5,0.5,2.5,1.0
33.0,12,2.3,5.0,1.0,2.3,1.3,2.7,0.7,0.7,0.3,3.7,4.0,2.3,1.0,0.7,0.7,2.0,6.3
28.0,4,1.7,3.3,0.3,1.3,1.3,2.0,1.0,1.0,0.7,2.7,3.3,0.3,2.0,1.0,0.7,1.3,4.7
22.0,1,2.3,4.5,0.8,2.0,1.5,2.5,0.0,0.0,0.3,2.0,2.3,2.0,0.8,0.3,1.3,1.5,5.3
22.0,2,1.3,4.0,0.5,2.5,0.8,1.5,0.3,0.5,0.8,1.3,2.0,0.5,0.3,0.0,0.5,2.0,3.3
28.0,8,3.8,5.3,0.0,0.0,3.8,5.3,1.3,2.5,2.3,6.3,8.5,1.3,0.3,0.8,1.8,3.0,8.8
27.0,6,7.0,18.0,3.3,7.0,3.8,11.0,2.5,3.5,0.5,3.3,3.8,4.5,1.3,0.0,2.5,1.8,19.8
20.0,2,7.0,10.3,0.0,0.0,7.0,10.3,1.5,2.3,5.3,8.0,13.3,3.3,0.8,2.0,2.8,3.3,15.5
21.0,3,6.7,16.7,1.0,4.0,5.7,12.7,3.3,4.0,0.7,4.3,5.0,1.7,0.3,0.7,3.3,1.7,17.7
22.0,3,6.3,9.5,1.0,2.5,5.3,7.0,1.0,2.0,0.5,6.5,7.0,2.0,1.5,1.0,1.8,2.5,14.5
26.0,5,0.0,2.0,0.0,2.0,0.0,0.0,0.0,0.0,0.3,1.0,1.3,1.0,0.5,0.3,0.0,1.0,0.0
24.0,1,1.0,1.0,0.0,0.0,1.0,1.0,0.0,0.0,0.0,0.0,0.0,0.0,0.0,0.0,0.0,0.0,2.0
23.0,4,4.7,6.7,1.3,2.3,3.3,4.3,0.7,1.0,1.7,3.7,5.3,1.0,0.7,0.3,0.7,3.0,11.3
22.0,3,4.0,9.8,1.5,5.0,2.5,4.8,1.8,1.8,1.5,4.3,5.8,1.8,1.5,0.8,1.0,3.0,11.3
22.0,2,5.8,12.0,1.3,3.5,4.5,8.5,2.8,2.8,0.0,4.5,4.5,4.5,0.8,0.5,2.0,2.3,15.5
24.0,2,2.0,4.5,0.0,2.0,2.0,2.5,0.0,0.0,1.5,1.5,3.0,0.0,1.5,0.0,0.5,1.0,4.0
26.0,7,7.8,15.8,2.8,5.5,5.0,10.3,1.8,2.0,0.3,1.8,2.0,8.3,0.0,1.0,2.8,1.5,20.0
20.0,1,0.0,5.0,0.0,1.0,0.0,4.0,0.0,0.0,1.0,3.0,4.0,0.0,1.0,0.0,0.0,1.0,0.0
23.0,3,0.5,2.0,0.5,1.5,0.0,0.5,0.0,0.0,0.0,0.0,0.0,0.5,0.0,0.0,0.5,0.0,1.5
24.0,2,0.0,0.0,0.0,0.0,0.0,0.0,0.0,0.0,0.0,1.0,1.0,0.0,0.0,0.0,0.0,0.0,0.0
24.0,6,6.3,13.5,1.8,4.3,4.5,9.3,4.5,5.3,1.3,5.8,7.0,2.8,0.3,2.8,1.3,4.3,18.8
23.0,5,0.3,0.3,0.0,0.0,0.3,0.3,0.5,0.5,0.0,1.8,1.8,0.0,0.3,0.0,0.5,1.8,1.0
27.0,8,9.3,19.0,3.7,8.0,5.7,11.0,2.3,4.0,0.7,5.3,6.0,2.7,2.0,0.3,2.0,3.0,24.7
25.0,7,12.0,21.7,3.3,9.0,8.7,12.7,2.3,3.3,0.0,8.3,8.3,4.0,1.0,0.3,2.7,3.0,29.7
24.0,2,2.0,3.0,0.0,1.0,2.0,2.0,0.0,0.0,0.0,0.0,0.0,0.0,0.0,0.0,0.0,0.0,4.0
37.0,16,2.7,5.0,0.0,1.0,2.7,4.0,1.3,1.7,1.3,1.0,2.3,1.3,0.0,0.3,0.3,1.0,6.7
29.0,10,5.5,15.0,1.0,5.3,4.5,9.8,4.8,5.5,1.3,3.3,4.5,1.3,0.8,1.0,2.5,2.5,16.8
20.0,2,3.0,7.8,0.5,2.0,2.5,5.8,2.3,3.3,1.8,4.3,6.0,4.3,1.0,0.3,2.3,3.8,8.8
25.0,3,0.0,0.5,0.0,0.0,0.0,0.5,0.0,0.0,0.5,1.5,2.0,0.5,0.0,0.0,0.0,0.0,0.0
25.0,1,0.0,0.0,0.0,0.0,0.0,0.0,0.0,0.0,0.0,0.0,0.0,0.0,0.0,0.0,0.0,1.0,0.0
26.0,4,0.0,2.0,0.0,0.0,0.0,2.0,0.0,0.0,1.0,1.0,2.0,0.0,0.0,0.0,0.0,0.0,0.0
20.0,1,0.5,1.0,0.0,0.5,0.5,0.5,0.0,0.0,0.0,0.5,0.5,0.5,0.0,0.0,0.0,0.0,1.0
28.0,6,1.8,4.8,0.8,2.8,1.0,2.0,0.0,0.0,0.3,0.8,1.0,1.5,0.3,0.3,1.0,0.5,4.3
34.0,13,4.3,13.3,0.3,0.7,4.0,12.7,6.3,7.3,4.0,3.3,7.3,3.7,1.0,0.7,0.7,0.3,15.3
28.0,3,1.0,2.0,1.0,2.0,0.0,0.0,0.0,0.0,0.0,0.0,0.0,2.0,0.0,0.0,1.0,1.0,3.0
32.0,10,0.5,2.0,0.3,1.3,0.3,0.8,0.0,0.0,0.0,0.3,0.3,0.8,0.3,0.0,0.5,1.5,1.3
36.0,10,0.3,1.8,0.0,1.3,0.3,0.5,0.0,0.0,0.3,1.5,1.8,2.5,0.8,0.0,0.8,2.0,0.5
29.0,8,11.7,21.3,2.0,4.7,9.7,16.7,5.7,8.7,1.7,8.7,10.3,7.0,1.0,3.0,3.7,2.7,31.0
26.0,7,5.5,11.8,1.0,3.5,4.5,8.3,1.5,2.3,4.0,6.5,10.5,1.5,0.5,0.3,0.3,3.3,13.5
27.0,5,1.3,2.7,0.7,2.0,0.7,0.7,0.0,0.0,1.3,5.0,6.3,1.3,1.0,1.3,0.3,1.0,3.3
21.0,2,2.0,4.0,0.0,0.0,2.0,4.0,1.0,2.0,1.0,1.0,2.0,0.0,0.0,0.0,2.0,2.0,5.0
31.0,12,3.7,8.3,1.0,3.3,2.7,5.0,2.0,2.0,0.7,6.7,7.3,1.3,0.0,1.0,2.3,2.0,10.3
26.0,5,1.7,3.7,0.7,2.3,1.0,1.3,0.7,1.0,0.3,2.7,3.0,0.3,0.7,0.7,0.7,1.3,4.7
21.0,3,4.0,9.0,0.7,2.0,3.3,7.0,2.3,3.7,1.3,3.0,4.3,0.7,1.0,0.3,2.3,4.0,11.0
31.0,10,4.3,12.3,1.3,4.3,3.0,8.0,2.3,3.8,1.5,1.8,3.3,5.0,0.5,0.0,3.5,2.0,12.0
25.0,1,0.0,1.0,0.0,0.0,0.0,1.0,0.0,0.0,0.0,0.0,0.0,0.0,0.0,0.0,0.0,0.0,0.0
25.0,3,3.0,8.8,0.8,3.3,2.3,5.5,1.8,2.3,1.3,3.5,4.8,2.5,1.3,0.0,1.5,1.8,8.5
21.0,1,3.3,7.3,2.0,5.0,1.3,2.3,0.0,0.7,0.7,2.3,3.0,1.7,0.7,0.0,0.7,1.0,8.7
27.0,5,0.5,1.5,0.5,0.5,0.0,1.0,0.0,0.0,0.0,0.0,0.0,2.0,0.0,0.5,0.0,0.5,1.5
24.0,1,1.0,1.5,0.5,0.5,0.5,1.0,0.0,0.0,0.0,0.0,0.0,0.0,0.0,0.0,0.0,1.0,2.5
25.0,4,2.0,7.0,1.0,2.0,1.0,5.0,0.0,0.0,1.0,0.0,1.0,1.0,0.0,1.0,0.0,0.0,5.0
24.0,5,6.7,17.3,1.7,7.7,5.0,9.7,3.7,4.7,0.7,2.3,3.0,3.0,1.7,1.0,4.0,2.0,18.7
21.0,3,5.3,13.3,0.8,2.0,4.5,11.3,0.8,1.3,1.3,4.0,5.3,4.5,0.5,0.3,2.3,0.8,12.0
23.0,4,3.3,7.3,1.3,3.0,2.0,4.3,2.0,3.3,1.3,1.0,2.3,2.0,1.7,0.0,1.3,2.0,10.0
28.0,7,1.8,4.8,1.0,2.8,0.8,2.0,0.3,0.5,0.8,5.8,6.5,1.3,0.5,0.0,1.0,2.0,4.8
21.0,2,0.5,1.5,0.0,0.5,0.5,1.0,0.0,0.0,0.0,0.0,0.0,0.0,0.0,0.5,0.0,0.0,1.0
25.0,6,3.8,7.0,1.0,2.8,2.8,4.3,2.8,3.0,2.3,1.8,4.0,1.5,0.3,0.8,1.3,2.0,11.3
30.0,9,3.0,7.0,0.0,2.0,3.0,5.0,0.0,0.0,0.0,3.0,3.0,2.0,0.0,0.0,0.0,3.0,6.0
33.0,15,5.0,10.0,1.0,4.0,4.0,6.0,1.3,1.3,1.7,4.7,6.3,4.0,0.3,2.0,1.3,2.0,12.3
22.0,2,0.5,2.5,0.5,1.5,0.0,1.0,0.0,0.0,0.0,1.0,1.0,0.0,0.0,0.5,0.5,0.0,1.5
20.0,1,0.0,0.0,0.0,0.0,0.0,0.0,0.0,0.0,0.0,0.0,0.0,0.0,0.0,0.0,0.0,0.0,0.0
21.0,1,1.7,3.7,0.7,1.7,1.0,2.0,0.0,0.0,0.0,1.0,1.0,0.3,0.0,0.0,0.0,0.7,4.0
29.0,10,4.5,15.3,2.0,6.3,2.5,9.0,4.0,6.3,2.3,9.0,11.3,5.5,0.8,0.0,3.0,2.8,15.0
34.0,11,0.0,0.0,0.0,0.0,0.0,0.0,0.0,0.0,0.0,0.0,0.0,0.0,0.0,0.0,0.0,0.0,0.0
29.0,10,3.3,7.8,0.8,2.8,2.5,5.0,2.8,3.3,2.0,8.5,10.5,4.0,1.5,1.0,1.8,4.3,10.0
27.0,1,0.0,4.0,0.0,2.0,0.0,2.0,0.0,0.0,0.0,1.0,1.0,0.0,0.0,0.0,0.0,0.0,0.0
28.0,9,6.7,18.0,1.3,5.7,5.3,12.3,1.0,1.3,1.3,8.7,10.0,2.7,0.7,1.3,1.7,2.3,15.7
32.0,12,7.0,15.8,3.0,6.3,4.0,9.5,2.3,3.0,1.5,4.8,6.3,4.5,1.8,0.3,2.3,1.5,19.3
23.0,2,5.7,14.3,3.3,9.7,2.3,4.7,1.3,2.0,2.7,5.0,7.7,2.3,1.7,1.3,1.7,3.3,16.0
28.0,6,1.0,2.0,0.0,0.0,1.0,2.0,0.0,0.0,0.0,1.0,1.0,1.0,0.0,0.0,0.0,0.0,2.0
24.0,5,6.5,14.5,2.3,6.0,4.3,8.5,2.0,2.8,1.3,4.0,5.3,4.0,0.8,0.3,1.5,3.5,17.3
32.0,11,2.8,4.0,0.5,1.3,2.3,2.8,2.0,2.3,2.5,2.5,5.0,3.8,1.3,0.3,1.5,3.0,8.0
28.0,9,6.3,12.7,1.7,5.3,4.7,7.3,4.7,5.0,1.3,2.7,4.0,0.7,2.0,0.3,1.3,2.7,19.0
21.0,2,0.0,0.5,0.0,0.0,0.0,0.5,0.0,0.0,0.0,0.0,0.0,0.5,0.0,0.0,0.5,1.0,0.0
30.0,11,4.0,8.0,1.8,4.3,2.3,3.8,1.0,1.0,0.3,2.3,2.5,0.8,2.8,1.0,1.5,3.0,10.8
23.0,4,2.0,5.0,0.5,2.5,1.5,2.5,0.5,1.0,0.5,1.0,1.5,0.5,1.0,0.5,1.0,1.5,5.0
24.0,2,0.0,0.0,0.0,0.0,0.0,0.0,0.0,0.0,0.0,0.0,0.0,0.0,0.0,0.0,0.0,0.0,0.0
23.0,3,0.0,0.5,0.0,0.5,0.0,0.0,0.0,0.0,0.0,0.0,0.0,0.0,0.0,0.0,0.0,0.0,0.0
35.0,16,10.3,20.0,1.0,3.5,9.3,16.5,5.8,7.3,0.5,6.5,7.0,4.8,1.0,0.8,4.3,1.0,27.3
25.0,6,2.3,8.7,1.3,5.7,1.0,3.0,0.3,0.7,0.7,4.0,4.7,2.7,0.0,1.0,0.3,2.0,6.3
35.0,16,2.7,7.3,2.0,5.0,0.7,2.3,1.0,1.3,1.3,6.7,8.0,2.3,0.3,0.0,1.0,2.3,8.3
27.0,9,3.0,5.0,0.0,0.0,3.0,5.0,1.0,1.3,3.0,7.3,10.3,2.3,1.3,0.5,1.3,2.3,7.0
23.0,1,0.0,1.0,0.0,0.0,0.0,1.0,0.0,0.0,0.0,0.0,0.0,0.0,0.0,0.0,0.0,0.0,0.0
20.0,1,2.8,7.0,1.5,4.5,1.3,2.5,0.8,0.8,1.0,2.3,3.3,3.0,0.5,0.0,1.0,0.5,7.8
32.0,12,1.5,4.5,0.5,2.5,1.0,2.0,2.0,3.0,0.0,2.5,2.5,4.5,1.5,0.0,1.5,1.0,5.5
22.0,4,3.0,9.5,1.0,4.0,2.0,5.5,1.0,1.8,0.3,2.0,2.3,4.3,1.5,0.8,1.5,2.8,8.0
22.0,4,1.7,4.3,0.0,2.0,1.7,2.3,1.0,1.3,0.3,0.7,1.0,0.7,0.0,0.3,0.3,0.7,4.3
33.0,11,6.7,14.0,3.3,8.3,3.3,5.7,0.7,0.7,0.7,4.0,4.7,2.3,0.3,0.7,2.3,3.3,17.3
24.0,1,1.3,2.7,0.7,1.7,0.7,1.0,0.0,0.0,0.3,2.0,2.3,0.7,0.3,0.3,0.0,2.0,3.3
20.0,1,0.0,1.5,0.0,0.5,0.0,1.0,0.5,1.0,0.5,0.5,1.0,0.0,0.0,0.0,0.0,0.0,0.5
29.0,8,1.8,5.5,0.0,1.3,1.8,4.3,0.5,1.0,0.0,1.5,1.5,2.3,1.3,0.0,2.0,2.3,4.0
23.0,1,0.0,0.5,0.0,0.5,0.0,0.0,0.0,0.0,0.0,0.5,0.5,0.0,0.5,0.0,0.0,0.5,0.0
28.0,8,7.0,12.0,2.7,5.7,4.3,6.3,4.0,4.7,1.3,6.3,7.7,1.3,1.0,2.0,1.3,4.0,20.7
30.0,10,3.3,6.7,0.0,1.0,3.3,5.7,1.0,1.3,1.0,3.3,4.3,4.7,2.0,0.3,1.7,0.7,7.7
28.0,7,9.0,18.7,1.7,6.7,7.3,12.0,2.7,3.0,1.3,5.3,6.7,2.0,0.3,0.7,0.7,0.7,22.3
37.0,18,2.3,5.0,1.5,3.5,0.8,1.5,0.0,0.0,0.5,4.0,4.5,4.5,1.3,0.5,1.8,3.0,6.0
31.0,13,8.0,20.5,1.0,6.0,7.0,14.5,2.5,2.5,0.5,4.0,4.5,6.0,0.5,0.0,1.0,2.5,19.5
22.0,4,3.7,14.7,2.0,8.0,1.7,6.7,5.0,6.0,1.3,4.7,6.0,9.0,1.7,0.3,3.3,3.3,14.3
26.0,4,2.0,2.0,1.0,1.0,1.0,1.0,0.0,0.0,2.0,0.0,2.0,0.0,0.0,0.0,3.0,1.0,5.0
31.0,9,1.0,1.7,0.3,0.3,0.7,1.3,0.0,0.0,1.3,5.0,6.3,0.7,0.3,0.3,1.7,1.7,2.3
26.0,7,8.8,18.8,4.3,9.8,4.5,9.0,3.3,3.5,3.0,6.8,9.8,2.3,0.8,0.8,1.8,1.5,25.0
39.0,21,8.8,16.5,1.8,5.8,7.0,10.8,2.8,4.8,0.5,8.0,8.5,6.5,1.5,0.8,4.5,1.0,22.0
20.0,1,0.0,1.0,0.0,0.0,0.0,1.0,0.0,0.0,0.0,1.0,1.0,0.0,0.0,0.0,0.0,0.0,0.0
23.0,2,2.0,3.0,1.0,2.0,1.0,1.0,0.0,0.0,0.0,0.0,0.0,0.0,0.0,0.0,1.0,0.0,5.0
26.0,3,0.0,0.5,0.0,0.5,0.0,0.0,0.0,0.0,0.0,0.0,0.0,0.0,0.0,0.0,0.0,0.0,0.0
25.0,6,5.5,11.0,3.5,6.5,2.0,4.5,2.0,3.0,0.0,3.0,3.0,3.0,0.5,1.0,1.0,2.0,16.5
24.0,5,4.5,8.8,1.8,4.5,2.8,4.3,1.8,2.3,1.0,3.0,4.0,1.0,1.5,1.0,0.8,2.3,12.5
24.0,6,13.3,24.0,6.0,12.3,7.3,11.7,6.3,9.0,0.7,11.0,11.7,9.7,1.0,0.3,3.3,2.0,39.0
25.0,3,1.0,1.0,0.0,0.0,1.0,1.0,0.0,0.0,0.0,1.0,1.0,0.0,0.0,0.0,0.0,0.0,2.0
24.0,4,1.5,3.0,0.5,1.0,1.0,2.0,0.0,0.0,0.0,0.5,0.5,0.0,0.5,0.0,0.0,0.0,3.5
27.0,7,0.0,5.0,0.0,5.0,0.0,0.0,3.0,3.0,1.0,1.0,2.0,2.0,0.0,0.0,1.0,0.0,3.0
28.0,7,0.0,0.5,0.0,0.0,0.0,0.5,0.0,0.0,0.5,0.5,1.0,1.5,0.0,0.5,0.5,0.5,0.0
25.0,4,1.5,3.3,0.8,1.5,0.8,1.8,0.3,0.3,0.0,0.3,0.3,1.0,0.8,0.0,1.5,1.5,4.0
20.0,2,2.8,8.3,1.0,3.0,1.8,5.3,0.5,0.5,0.0,1.3,1.3,2.0,0.8,0.0,1.5,0.5,7.0
31.0,8,7.5,17.0,2.5,6.0,5.0,11.0,1.8,2.5,1.0,3.3,4.3,4.0,0.3,0.0,1.5,1.5,19.3
27.0,8,3.3,8.0,2.0,5.7,1.3,2.3,0.7,2.0,0.3,3.3,3.7,2.0,2.0,0.0,2.0,2.3,9.3
25.0,7,4.3,11.0,2.3,6.7,2.0,4.3,2.7,3.0,0.7,1.0,1.7,5.3,0.0,1.0,2.0,1.7,13.7
23.0,2,2.5,4.0,1.0,1.5,1.5,2.5,0.0,0.0,1.0,0.5,1.5,0.0,0.0,0.0,0.5,3.0,6.0
23.0,1,1.5,2.8,1.0,1.8,0.5,1.0,0.0,0.0,0.3,1.8,2.0,1.3,0.3,0.0,0.5,0.5,4.0
29.0,10,6.5,12.3,2.8,7.0,3.8,5.3,1.5,2.3,0.5,2.3,2.8,5.8,3.0,0.5,3.8,3.5,17.3
22.0,2,4.7,6.0,0.0,0.0,4.7,6.0,1.7,1.7,2.3,6.0,8.3,1.0,1.0,0.7,1.3,2.7,11.0
25.0,7,5.5,11.0,0.0,0.8,5.5,10.3,0.0,0.3,1.5,2.3,3.8,4.3,1.3,0.5,1.3,1.3,11.0
24.0,6,4.0,6.0,0.3,0.5,3.8,5.5,3.3,3.8,1.3,4.3,5.5,1.3,0.0,0.3,0.3,1.0,11.5
33.0,11,2.5,3.8,0.0,0.0,2.5,3.8,0.8,2.0,2.0,4.3,6.3,1.3,0.0,0.3,0.8,1.5,5.8
26.0,5,1.8,3.8,1.3,3.3,0.5,0.5,0.0,0.0,0.3,0.5,0.8,0.8,0.5,0.3,0.5,1.0,4.8
26.0,3,2.7,7.7,2.3,7.0,0.3,0.7,0.3,0.3,0.3,1.7,2.0,2.0,0.7,0.3,0.7,2.3,8.0
20.0,2,0.0,0.0,0.0,0.0,0.0,0.0,0.0,0.0,0.0,0.0,0.0,0.0,0.0,0.0,0.0,0.0,0.0
27.0,5,5.3,15.0,3.5,10.0,1.8,5.0,1.5,1.8,0.3,7.5,7.8,3.8,0.8,0.5,0.8,2.3,15.5
32.0,7,1.3,4.7,1.0,2.7,0.3,2.0,0.7,0.7,1.3,4.3,5.7,2.0,0.3,0.3,0.7,2.0,4.3
21.0,1,0.0,0.0,0.0,0.0,0.0,0.0,0.0,0.0,0.0,0.0,0.0,0.0,0.0,0.0,0.0,0.0,0.0
25.0,5,4.8,10.5,2.5,6.8,2.3,3.8,0.3,0.3,1.5,7.3,8.8,2.3,0.5,0.3,0.8,2.8,12.3
27.0,6,7.3,14.0,1.3,4.0,6.0,10.0,4.7,5.0,1.3,4.3,5.7,3.7,1.3,0.3,3.0,3.0,20.7
36.0,17,4.0,9.3,1.7,5.3,2.3,4.0,0.7,0.7,1.3,2.0,3.3,3.7,0.7,0.3,0.3,1.7,10.3
32.0,11,0.5,0.5,0.0,0.0,0.5,0.5,0.0,0.0,0.0,3.0,3.0,1.0,0.0,0.0,0.0,1.0,1.0
23.0,3,1.0,2.5,0.5,2.0,0.5,0.5,0.0,0.0,0.0,0.5,0.5,0.5,0.5,0.0,0.0,0.5,2.5
25.0,6,2.8,5.5,0.0,0.0,2.8,5.5,0.8,1.5,5.5,4.8,10.3,0.5,2.0,1.5,0.5,1.5,6.3
25.0,6,0.0,0.0,0.0,0.0,0.0,0.0,0.0,0.0,0.0,0.0,0.0,0.0,0.0,1.0,0.0,0.0,0.0
26.0,6,3.5,5.3,0.3,1.3,3.3,4.0,2.0,2.8,1.3,2.5,3.8,0.5,0.5,0.8,1.5,2.5,9.3
21.0,3,3.5,6.3,1.8,4.3,1.8,2.0,1.0,1.3,0.8,2.3,3.0,1.5,1.5,0.5,0.5,0.5,9.8
21.0,1,0.0,0.5,0.0,0.5,0.0,0.0,0.0,0.0,0.0,0.0,0.0,0.0,0.5,0.0,0.0,0.5,0.0
22.0,2,0.7,1.7,0.0,0.0,0.7,1.7,0.0,0.0,1.0,0.0,1.0,1.3,0.7,0.0,0.7,0.0,1.3
27.0,9,6.0,12.0,1.3,5.0,4.7,7.0,3.7,5.0,1.0,9.3,10.3,1.7,0.0,2.3,1.7,3.7,17.0
23.0,5,1.5,3.5,0.8,2.5,0.8,1.0,0.5,0.5,0.0,1.5,1.5,0.3,1.3,0.3,0.5,2.0,4.3
24.0,5,6.0,11.3,2.3,5.3,3.7,6.0,1.7,1.7,0.7,3.7,4.3,0.7,0.7,0.0,0.7,1.3,16.0
24.0,5,3.0,10.0,0.0,0.0,3.0,10.0,1.0,1.0,4.0,3.0,7.0,4.0,0.0,3.0,0.0,1.0,7.0
26.0,4,1.0,1.3,0.0,0.0,1.0,1.3,1.7,2.7,0.7,2.0,2.7,0.7,0.7,1.7,1.7,3.0,3.7
19.0,1,0.0,0.0,0.0,0.0,0.0,0.0,0.0,0.0,0.0,0.0,0.0,0.0,0.0,0.0,0.0,0.0,0.0
25.0,5,1.3,5.3,0.7,4.0,0.7,1.3,0.0,0.7,0.0,2.3,2.3,2.3,0.7,0.7,1.7,2.3,3.3
35.0,16,1.0,2.7,0.7,2.3,0.3,0.3,0.0,0.0,0.0,2.3,2.3,1.7,1.0,1.3,0.3,1.7,2.7
28.0,9,11.0,17.0,1.5,3.5,9.5,13.5,3.0,4.5,2.3,10.0,12.3,8.5,0.5,1.0,4.0,2.3,26.5
20.0,2,2.0,4.0,1.5,2.5,0.5,1.5,1.0,1.0,0.0,7.5,7.5,2.0,0.5,0.0,1.0,1.0,6.5
33.0,13,6.0,13.3,0.5,2.5,5.5,10.8,2.0,2.8,2.3,8.3,10.5,2.3,1.0,0.8,2.3,3.0,14.5
30.0,9,4.8,8.8,2.0,4.8,2.8,4.0,3.0,3.8,0.3,2.8,3.0,1.5,0.8,0.3,1.5,1.8,14.5
26.0,7,5.3,11.0,2.3,7.3,3.0,3.7,0.7,1.0,0.0,4.0,4.0,0.7,2.0,1.3,1.7,1.3,13.7
25.0,4,2.7,6.3,0.7,2.7,2.0,3.7,1.0,1.0,1.7,3.7,5.3,0.3,0.7,0.3,0.3,0.7,7.0
23.0,2,0.8,3.8,0.3,1.8,0.5,2.0,0.0,0.0,0.3,1.3,1.5,1.0,0.3,0.5,0.0,1.3,1.8
24.0,3,0.3,0.3,0.0,0.0,0.3,0.3,1.3,2.0,0.7,3.7,4.3,0.3,0.0,1.0,0.3,1.7,2.0
25.0,3,1.0,1.5,0.0,0.5,1.0,1.0,0.0,0.0,0.5,2.0,2.5,0.5,0.0,0.0,0.0,0.0,2.0
23.0,4,3.5,5.3,0.0,0.5,3.5,4.8,2.3,2.3,1.8,3.3,5.0,2.0,0.5,0.3,0.5,3.5,9.3
23.0,2,2.0,4.5,0.5,0.5,1.5,4.0,1.0,1.0,1.0,3.0,4.0,3.5,0.5,0.5,1.5,2.0,5.5
25.0,5,0.5,3.0,0.0,1.0,0.5,2.0,0.0,0.0,2.0,1.5,3.5,0.5,0.5,0.0,1.0,1.5,1.0
20.0,2,2.3,4.8,1.3,3.5,1.0,1.3,0.3,0.5,0.5,1.8,2.3,1.3,0.0,0.0,0.5,1.0,6.0
38.0,13,0.7,1.7,0.7,1.7,0.0,0.0,0.0,0.0,0.3,4.3,4.7,0.0,1.0,0.7,0.7,3.0,2.0
25.0,5,8.3,15.0,1.0,4.7,7.3,10.3,0.0,0.7,1.3,5.3,6.7,2.3,0.7,0.3,1.3,4.7,17.7
21.0,2,4.3,11.3,0.5,2.3,3.8,9.0,3.5,6.5,0.8,4.5,5.3,4.5,1.8,0.0,2.3,2.3,12.5
29.0,8,6.0,15.3,1.5,5.3,4.5,10.0,2.5,3.5,0.8,6.3,7.0,3.8,0.5,0.3,1.8,2.8,16.0
31.0,9,2.3,6.7,1.3,4.3,1.0,2.3,0.7,0.7,0.3,3.0,3.3,2.0,0.7,0.7,0.7,1.0,6.7
21.0,2,0.0,1.0,0.0,0.5,0.0,0.5,0.0,0.0,0.0,0.0,0.0,0.5,0.0,0.0,0.0,0.0,0.0
35.0,12,1.3,2.0,0.0,0.0,1.3,2.0,0.0,0.0,1.3,1.7,3.0,2.0,0.3,1.0,0.7,2.3,2.7
22.0,4,2.0,6.0,0.5,2.8,1.5,3.3,0.5,0.5,0.8,2.5,3.3,1.5,1.5,0.3,1.0,2.3,5.0
33.0,14,9.0,17.0,3.8,8.0,5.3,9.0,5.5,5.8,0.8,3.8,4.5,4.8,2.5,0.0,2.5,1.5,27.3
24.0,4,1.3,3.7,0.0,1.0,1.3,2.7,0.3,0.7,1.3,3.3,4.7,1.0,0.3,0.7,1.3,3.3,3.0
26.0,4,0.7,4.3,0.3,3.3,0.3,1.0,0.7,0.7,0.3,2.3,2.7,2.7,0.3,0.0,1.3,2.0,2.3
21.0,2,3.5,5.5,1.0,2.5,2.5,3.0,0.5,1.0,0.3,2.0,2.3,0.3,0.5,1.5,0.5,1.3,8.5
24.0,4,3.0,8.0,0.3,1.7,2.7,6.3,1.0,1.0,2.7,5.3,8.0,1.3,0.0,0.3,2.0,2.7,7.3
23.0,3,2.5,6.5,1.8,5.0,0.8,1.5,0.0,0.3,0.3,1.0,1.3,0.8,1.0,0.0,0.3,2.3,6.8
22.0,4,0.0,1.0,0.0,0.0,0.0,1.0,0.0,0.0,0.0,0.0,0.0,0.0,0.0,0.0,0.0,0.0,0.0
23.0,5,7.3,16.0,2.3,5.3,5.0,10.8,4.3,5.3,0.8,2.3,3.0,2.5,0.5,0.3,2.3,1.0,21.0
19.0,1,0.0,0.5,0.0,0.5,0.0,0.0,0.0,0.0,0.0,0.0,0.0,0.0,0.0,0.0,0.0,0.0,0.0
32.0,11,0.3,1.3,0.3,1.3,0.0,0.0,0.0,0.0,0.0,1.7,1.7,0.0,0.3,0.3,0.7,1.0,1.0
33.0,13,3.5,7.5,1.3,3.8,2.3,3.8,0.0,0.3,0.3,2.0,2.3,3.5,0.8,0.3,1.3,1.5,8.3
33.0,11,1.0,3.0,0.7,2.7,0.3,0.3,0.3,0.7,0.7,2.0,2.7,2.3,2.0,0.7,0.0,2.3,3.0
26.0,6,3.3,5.0,0.0,0.0,3.3,5.0,0.7,1.0,1.7,4.0,5.7,1.3,1.7,1.0,1.3,2.7,7.3
35.0,16,0.0,0.0,0.0,0.0,0.0,0.0,2.0,2.0,0.0,0.0,0.0,1.0,0.0,0.0,1.0,0.0,2.0
30.0,7,3.0,7.7,2.0,5.7,1.0,2.0,0.0,0.0,0.7,5.7,6.3,1.7,0.3,0.7,1.3,2.3,8.0
31.0,11,5.3,9.3,0.0,0.0,5.3,9.3,3.7,5.3,5.0,8.3,13.3,1.0,1.3,2.0,1.3,2.0,14.3
25.0,5,2.7,6.3,1.0,3.0,1.7,3.3,1.7,2.0,1.3,1.7,3.0,0.3,0.3,0.3,0.3,1.7,8.0
35.0,16,5.8,10.3,1.0,3.0,4.8,7.3,0.5,1.3,1.0,6.0,7.0,6.8,1.8,0.8,3.3,3.5,13.0
29.0,7,0.0,0.0,0.0,0.0,0.0,0.0,0.0,0.0,0.0,1.0,1.0,0.0,0.0,0.0,0.0,0.0,0.0
21.0,2,0.0,2.5,0.0,0.0,0.0,2.5,4.0,5.0,0.5,1.5,2.0,2.0,2.0,0.0,1.0,0.5,4.0
24.0,4,1.0,2.0,0.0,1.0,1.0,1.0,0.0,0.0,0.0,0.0,0.0,2.0,0.0,1.0,0.0,0.0,2.0
24.0,4,4.0,7.5,1.5,3.0,2.5,4.5,1.5,1.8,1.5,3.8,5.3,1.3,1.3,0.5,1.3,1.3,11.0
26.0,3,1.3,5.3,1.0,5.0,0.3,0.3,0.0,0.0,1.0,2.7,3.7,0.3,0.3,0.7,0.3,1.7,3.7
27.0,4,1.0,3.0,1.0,2.5,0.0,0.5,0.0,0.0,0.5,1.0,1.5,1.5,1.0,0.0,0.5,0.0,3.0
24.0,3,0.0,0.0,0.0,0.0,0.0,0.0,0.0,0.0,1.0,1.0,2.0,0.0,1.0,0.0,0.0,1.0,0.0
28.0,1,3.7,7.3,2.0,5.0,1.7,2.3,0.3,0.3,0.3,2.0,2.3,0.3,0.7,0.3,0.0,0.3,9.7
19.0,1,3.5,10.5,0.3,4.5,3.3,6.0,1.0,1.3,0.8,2.0,2.8,4.0,0.8,0.3,4.3,4.5,8.3
22.0,3,8.5,16.3,1.3,3.8,7.3,12.5,2.5,3.3,1.8,7.8,9.5,5.5,1.0,2.5,4.0,3.0,20.8
33.0,10,0.7,2.0,0.3,1.0,0.3,1.0,0.0,0.0,0.0,0.7,0.7,1.0,0.3,0.3,0.7,1.0,1.7
20.0,2,6.5,15.0,2.3,6.5,4.3,8.5,2.8,3.0,2.8,2.5,5.3,2.5,1.0,0.5,2.5,2.8,18.0
25.0,6,10.0,20.8,1.3,3.5,8.8,17.3,4.8,5.0,0.8,6.5,7.3,6.3,2.5,0.8,2.8,1.5,26.0
27.0,6,2.0,5.7,1.0,2.7,1.0,3.0,0.3,1.0,0.0,1.7,1.7,2.3,0.7,0.0,1.7,1.7,5.3
28.0,2,3.0,5.0,1.5,3.5,1.5,1.5,0.0,0.0,1.0,1.0,2.0,0.5,0.0,0.5,1.0,0.5,7.5
26.0,4,1.0,2.7,0.3,1.3,0.7,1.3,0.0,0.0,0.0,0.0,0.0,1.0,0.3,0.0,0.3,0.0,2.3
30.0,10,3.7,8.7,2.7,6.0,1.0,2.7,1.0,1.3,0.0,1.7,1.7,4.7,0.0,0.0,1.3,2.7,11.0
24.0,2,0.0,0.0,0.0,0.0,0.0,0.0,0.0,0.0,0.0,0.0,0.0,0.0,0.5,0.0,0.0,0.0,0.0
35.0,15,10.8,19.3,6.0,12.8,4.8,6.5,6.0,6.5,0.8,4.5,5.3,4.0,1.3,0.3,2.5,1.8,33.5
26.0,6,1.0,2.0,1.0,2.0,0.0,0.0,0.0,0.0,0.0,0.0,0.0,1.0,1.0,0.0,0.0,0.0,3.0
31.0,9,2.5,3.5,0.0,0.0,2.5,3.5,1.0,1.0,0.5,1.0,1.5,5.0,1.0,0.0,0.0,0.5,6.0
23.0,5,3.5,9.5,1.5,3.8,2.0,5.8,1.0,1.5,0.0,1.8,1.8,5.3,1.0,0.5,1.0,2.5,9.5
29.0,8,3.5,8.5,2.3,5.5,1.3,3.0,1.3,1.5,0.3,1.3,1.5,1.0,0.3,0.8,0.5,2.3,10.5
20.0,1,0.0,0.0,0.0,0.0,0.0,0.0,1.0,2.0,0.0,1.0,1.0,0.0,0.0,0.0,0.0,0.0,1.0
29.0,9,8.3,18.3,1.3,6.7,7.0,11.7,4.3,5.7,0.7,3.0,3.7,5.3,0.7,0.3,2.3,1.3,22.3
24.0,3,0.0,0.0,0.0,0.0,0.0,0.0,0.0,0.0,0.0,0.0,0.0,0.0,0.0,0.0,0.0,0.0,0.0
31.0,6,1.0,1.0,0.0,0.0,1.0,1.0,0.0,0.0,0.0,0.0,0.0,2.0,1.0,0.0,3.0,2.0,2.0
26.0,7,2.3,5.3,0.0,0.5,2.3,4.8,1.8,2.3,1.5,2.8,4.3,1.3,0.8,0.3,1.0,0.5,6.3
22.0,4,1.7,5.3,0.0,2.3,1.7,3.0,3.0,3.3,0.0,2.0,2.0,2.0,1.3,0.0,0.7,1.0,6.3
31.0,11,6.3,15.0,3.0,8.0,3.3,7.0,3.3,3.3,1.0,4.0,5.0,1.7,0.3,0.0,1.0,1.0,19.0
31.0,13,6.7,10.0,2.0,3.7,4.7,6.3,4.3,5.3,0.3,4.3,4.7,2.0,1.0,1.3,2.3,2.0,19.7
33.0,7,2.8,5.8,1.3,2.8,1.5,3.0,0.0,0.0,2.3,2.5,4.8,0.5,0.8,0.8,0.8,2.5,6.8
23.0,1,2.0,7.3,0.8,2.8,1.3,4.5,1.3,2.0,1.5,2.5,4.0,1.5,0.0,1.0,0.3,1.8,6.0
25.0,6,5.5,17.8,1.8,7.3,3.8,10.5,8.5,9.8,0.3,1.8,2.0,10.0,1.5,0.0,3.8,1.8,21.3
23.0,1,2.5,4.5,0.0,0.0,2.5,4.5,1.5,2.0,3.5,1.5,5.0,0.0,0.0,2.0,1.0,1.5,6.5
24.0,4,3.0,5.8,0.8,2.3,2.3,3.5,2.5,2.5,1.0,2.8,3.8,5.3,1.0,0.3,1.3,0.8,9.3
22.0,3,1.7,2.3,0.3,0.7,1.3,1.7,0.3,0.3,0.3,1.0,1.3,0.7,0.0,0.0,0.3,0.0,4.0
25.0,4,0.0,0.0,0.0,0.0,0.0,0.0,0.0,0.0,0.0,0.0,0.0,1.0,0.0,0.0,0.0,1.0,0.0
32.0,12,1.5,2.0,0.0,0.0,1.5,2.0,1.0,1.0,2.5,1.0,3.5,1.5,0.0,1.0,1.0,1.0,4.0
24.0,6,0.0,1.0,0.0,1.0,0.0,0.0,0.0,0.0,0.0,1.5,1.5,0.5,0.5,0.0,1.0,0.5,0.0
26.0,5,1.0,2.0,0.0,0.5,1.0,1.5,0.0,0.0,0.5,0.0,0.5,1.5,0.0,0.0,0.5,1.0,2.0
22.0,2,1.0,2.0,1.0,1.0,0.0,1.0,0.0,0.0,0.0,0.0,0.0,0.0,0.0,0.0,1.0,0.0,3.0
24.0,5,9.3,22.0,3.3,8.5,6.0,13.5,3.5,3.8,0.5,4.8,5.3,4.0,1.3,0.0,2.0,1.3,25.3
23.0,4,7.3,16.0,2.3,7.0,5.0,9.0,3.0,3.3,0.7,4.7,5.3,12.3,1.0,0.7,2.7,1.3,20.0
23.0,4,9.3,18.7,4.7,8.3,4.7,10.3,7.0,7.7,0.7,6.0,6.7,6.3,0.7,0.3,1.0,1.7,30.3
27.0,9,5.7,11.0,2.3,5.3,3.3,5.7,0.0,0.3,1.0,1.7,2.7,6.7,1.3,0.3,1.3,1.0,13.7
24.0,4,1.0,1.0,0.0,0.0,1.0,1.0,0.0,0.0,0.0,3.0,3.0,0.0,0.0,0.0,0.0,0.0,2.0
30.0,1,1.0,2.0,0.5,1.5,0.5,0.5,0.0,0.0,0.0,0.0,0.0,2.0,0.0,0.0,2.0,0.5,2.5
20.0,1,5.8,12.5,1.3,4.8,4.5,7.8,3.5,5.0,2.3,5.3,7.5,1.5,1.5,2.3,4.8,2.8,16.3
23.0,2,0.0,0.0,0.0,0.0,0.0,0.0,0.0,0.0,0.0,0.0,0.0,0.0,0.0,0.0,0.0,0.0,0.0
22.0,2,4.5,6.5,0.3,1.0,4.3,5.5,0.5,0.8,2.8,4.8,7.5,0.3,0.0,0.8,1.5,2.5,9.8
24.0,6,3.0,8.3,0.5,2.5,2.5,5.8,1.8,3.0,2.3,6.0,8.3,1.5,0.8,0.3,1.5,2.5,8.3
25.0,4,4.5,11.5,1.0,3.8,3.5,7.8,1.0,2.3,2.3,6.3,8.5,2.5,2.0,1.0,1.5,2.8,11.0
29.0,6,2.5,5.5,1.8,4.0,0.8,1.5,0.5,0.5,0.5,2.5,3.0,0.5,0.8,0.5,1.0,1.8,7.3
26.0,6,5.0,11.0,0.5,4.5,4.5,6.5,1.0,1.5,0.8,4.8,5.5,4.8,1.5,1.3,3.5,3.5,11.5
28.0,10,8.0,20.0,2.5,8.5,5.5,11.5,6.0,6.8,0.3,4.3,4.5,1.3,0.3,0.3,3.0,2.3,24.5
23.0,4,1.5,2.5,0.0,0.3,1.5,2.3,1.3,1.8,0.5,1.3,1.8,0.5,0.5,0.5,0.5,1.3,4.3
22.0,3,4.0,9.8,1.8,5.5,2.3,4.3,1.3,1.3,0.8,6.8,7.5,1.5,0.3,0.0,2.3,1.5,11.0
23.0,4,9.3,16.3,0.0,0.3,9.3,16.0,3.3,6.0,2.7,3.0,5.7,2.7,1.0,0.0,2.7,2.0,22.0
23.0,1,1.5,3.6,1.3,3.0,0.3,0.6,0.1,0.1,0.2,1.1,1.3,0.6,0.2,0.0,0.3,0.9,4.4
22.0,1,1.5,2.9,0.7,1.7,0.8,1.3,0.1,0.5,0.4,1.0,1.4,0.1,0.1,0.0,0.2,0.7,3.7
22.0,1,1.0,1.0,0.0,0.0,1.0,1.0,0.0,0.0,0.0,1.0,1.0,0.0,0.0,0.0,0.0,1.0,2.0
22.0,1,1.5,3.1,0.7,1.8,0.8,1.3,0.1,0.6,0.4,1.0,1.4,0.1,0.1,0.0,0.2,0.7,3.9
19.0,1,3.4,7.4,1.4,3.6,2.0,3.8,0.6,0.7,0.5,1.6,2.1,1.0,0.6,0.2,0.6,1.2,8.9
27.0,9,6.3,11.2,0.9,2.5,5.4,8.6,2.8,4.6,2.4,4.1,6.6,3.0,0.8,0.8,1.4,1.9,16.3
26.0,5,1.5,3.5,0.6,1.4,0.9,2.1,0.4,0.5,0.4,0.8,1.2,1.4,0.6,0.2,0.6,1.3,3.9
23.0,3,3.5,8.1,1.6,4.3,1.9,3.8,1.6,1.9,0.8,2.9,3.8,1.3,0.8,0.5,1.0,3.2,10.1
24.0,2,2.7,5.2,0.7,1.7,2.0,3.4,0.8,1.0,1.0,2.0,3.0,1.1,0.6,0.2,0.8,1.6,6.8
25.0,3,1.5,3.3,0.6,2.0,0.8,1.3,0.6,0.6,0.6,1.1,1.7,0.8,0.2,0.1,0.4,1.6,4.2
36.0,16,3.6,7.6,2.3,5.2,1.3,2.4,0.2,0.3,1.2,5.0,6.2,3.0,0.5,1.0,0.6,1.9,9.8
31.0,12,3.9,9.0,1.9,4.7,2.0,4.3,3.0,3.7,0.4,2.7,3.1,2.2,0.7,0.2,1.1,1.9,12.8
21.0,3,3.2,7.3,1.1,3.1,2.1,4.3,0.6,1.0,1.3,3.4,4.7,1.9,0.6,1.3,1.3,1.7,8.1
28.0,6,1.9,4.3,0.8,2.3,1.1,2.0,0.9,1.1,0.6,2.3,2.9,2.9,1.5,0.7,1.1,2.4,5.6
29.0,10,0.6,1.2,0.0,0.1,0.6,1.1,0.4,0.6,0.9,1.4,2.3,0.5,0.2,0.4,0.6,1.1,1.7
26.0,5,0.8,1.5,0.0,0.5,0.8,1.0,0.3,0.5,0.5,2.0,2.5,0.3,0.3,0.0,1.0,0.8,1.8
23.0,1,0.0,0.0,0.0,0.0,0.0,0.0,0.0,0.0,0.0,1.0,1.0,0.0,0.0,0.0,2.0,1.0,0.0
20.0,2,5.9,10.7,0.3,0.8,5.6,9.9,2.7,3.8,3.2,5.8,9.0,3.9,0.9,0.9,2.6,3.4,14.8
25.0,4,1.1,2.9,0.2,0.8,0.9,2.1,1.0,1.3,0.3,0.7,1.1,1.1,0.1,0.1,0.4,1.0,3.4
29.0,11,2.5,4.1,0.0,0.0,2.5,4.0,1.0,1.9,2.1,4.6,6.6,0.5,0.7,0.4,1.1,1.7,6.0
39.0,19,0.9,1.9,0.1,1.1,0.8,0.8,0.3,0.4,0.4,1.8,2.1,2.4,0.5,0.4,1.1,1.4,2.1
23.0,1,3.8,8.6,1.2,3.5,2.6,5.1,0.7,0.8,0.5,2.2,2.7,4.5,0.9,0.2,1.7,2.4,9.5
27.0,9,6.8,14.3,2.4,6.1,4.4,8.2,1.2,1.9,1.6,3.4,5.0,2.3,1.2,0.8,1.3,2.9,17.1
23.0,5,7.5,16.9,3.4,9.1,4.1,7.8,2.6,2.9,0.3,2.3,2.6,4.1,0.7,0.2,2.1,2.3,21.1
29.0,11,9.7,17.2,0.3,1.3,9.3,15.9,6.2,7.9,3.5,9.1,12.5,2.6,1.1,2.0,2.2,2.6,25.9
21.0,3,8.9,19.5,2.7,7.3,6.3,12.2,4.0,5.3,0.6,5.2,5.8,4.4,1.6,0.7,3.3,2.4,24.6
30.0,3,1.2,2.2,0.1,0.5,1.1,1.7,0.8,1.1,0.6,1.1,1.7,0.6,0.1,0.2,0.3,1.2,3.3
25.0,3,2.4,5.1,1.2,3.2,1.2,1.9,0.7,1.0,0.9,2.6,3.5,1.5,0.5,0.3,0.9,2.2,6.7
24.0,2,4.0,7.7,1.3,3.4,2.7,4.3,3.6,4.1,0.5,2.5,3.0,3.4,0.5,0.3,1.5,1.7,13.0
30.0,11,1.8,4.0,0.8,2.4,0.9,1.7,0.6,0.8,0.1,1.5,1.6,1.4,0.5,0.1,0.4,1.5,4.9
23.0,2,3.5,7.1,0.7,2.4,2.8,4.8,0.8,1.0,0.6,2.2,2.8,2.6,0.8,0.3,1.2,2.3,8.6
25.0,6,8.0,14.9,0.0,0.2,8.0,14.7,4.3,5.4,2.5,6.7,9.2,3.2,1.2,0.8,2.5,2.8,20.4
26.0,5,3.2,5.6,0.0,0.0,3.2,5.5,0.6,1.4,1.0,5.3,6.3,6.1,1.3,0.6,2.3,3.3,6.9
20.0,1,5.3,12.2,1.3,4.0,4.0,8.2,4.8,5.8,1.1,3.0,4.1,1.5,0.6,0.2,1.9,2.1,16.7
30.0,12,2.0,3.4,0.0,0.0,2.0,3.4,0.4,1.1,1.5,2.8,4.3,0.9,0.3,1.4,0.8,1.9,4.3
33.0,13,1.5,3.2,0.6,1.6,1.0,1.6,0.5,0.8,1.1,2.6,3.8,1.5,0.3,0.2,0.5,1.8,4.1
19.0,1,1.9,5.8,0.5,1.4,1.3,4.4,0.7,1.2,0.3,1.9,2.2,2.7,0.7,0.1,1.8,1.8,5.0
34.0,8,1.3,1.9,0.0,0.0,1.3,1.9,0.6,0.9,0.6,1.3,1.9,0.3,0.2,0.1,0.5,0.3,3.3
27.0,8,5.7,11.5,1.4,3.7,4.3,7.8,1.4,1.8,2.2,7.4,9.6,1.5,0.4,0.2,1.2,1.6,14.1
30.0,6,5.1,11.3,2.7,6.7,2.4,4.6,1.2,1.4,0.4,2.6,3.1,2.8,0.8,0.3,1.2,1.6,14.0
33.0,9,7.3,14.9,2.5,6.0,4.8,9.0,4.5,5.1,0.6,3.2,3.8,2.6,0.6,0.1,2.3,1.9,21.6
23.0,4,3.7,6.8,0.4,1.6,3.3,5.2,1.2,1.5,1.0,4.8,5.8,1.0,0.4,1.2,1.6,1.3,9.1
22.0,2,4.1,10.2,2.1,5.6,2.0,4.6,1.5,1.8,0.4,2.1,2.4,3.1,0.7,0.3,1.5,1.7,11.8
22.0,2,4.1,10.3,2.2,5.7,2.0,4.6,1.7,2.0,0.2,1.8,2.0,3.0,0.7,0.3,1.6,1.6,12.1
22.0,2,3.9,9.8,1.9,5.3,2.1,4.5,1.1,1.4,0.7,2.8,3.5,3.4,0.8,0.1,1.1,2.1,10.8
29.0,11,8.9,17.6,1.6,4.4,7.3,13.2,3.8,4.6,0.8,3.1,3.9,5.4,0.9,0.7,2.9,2.1,23.2
21.0,2,2.3,5.5,0.5,1.3,1.8,4.2,1.3,1.7,0.3,1.0,1.4,0.9,0.4,0.0,0.5,1.0,6.5
26.0,4,4.1,6.2,0.0,0.1,4.1,6.1,1.8,2.4,1.6,3.9,5.5,1.3,0.6,0.7,1.0,2.3,10.0
25.0,7,9.0,18.6,1.4,3.6,7.6,14.9,5.3,6.0,0.5,5.0,5.5,5.8,0.7,0.4,3.3,2.6,24.7
25.0,2,0.3,0.3,0.0,0.0,0.3,0.3,0.7,0.7,0.0,0.3,0.3,0.0,0.0,0.0,0.0,0.0,1.3
34.0,15,6.1,11.5,1.7,4.7,4.4,6.9,1.9,2.4,2.0,4.7,6.7,1.3,0.5,2.5,1.4,2.6,15.9
26.0,5,4.5,9.3,1.1,3.2,3.3,6.1,1.5,1.9,0.8,3.3,4.1,3.4,1.1,0.6,1.5,2.4,11.5
24.0,4,1.5,2.9,0.0,0.1,1.5,2.8,0.9,1.3,1.4,2.1,3.5,0.8,0.2,0.9,0.6,1.9,3.9
24.0,4,1.5,3.0,0.0,0.0,1.5,3.0,1.0,1.4,1.5,2.4,3.9,1.0,0.2,1.0,0.6,2.2,4.1
24.0,4,1.4,2.4,0.0,0.4,1.4,2.0,0.6,0.8,0.8,1.1,1.9,0.1,0.0,0.4,0.6,0.8,3.4
20.0,1,1.7,4.4,0.6,1.7,1.2,2.7,1.3,1.7,0.4,1.6,2.0,1.2,0.3,0.1,0.9,1.0,5.3
29.0,7,1.2,3.3,0.6,1.8,0.6,1.5,0.6,0.6,0.2,0.4,0.6,0.7,0.3,0.1,0.5,0.9,3.6
23.0,1,0.5,2.7,0.4,2.5,0.1,0.2,0.2,0.2,0.2,0.4,0.6,0.4,0.2,0.0,0.0,0.6,1.6
30.0,7,5.9,13.0,3.6,8.5,2.3,4.5,1.3,1.6,0.8,4.2,5.0,2.8,1.2,0.3,1.7,2.0,16.8
31.0,10,7.8,17.9,2.8,7.2,5.0,10.7,2.4,3.2,0.7,3.6,4.4,5.7,0.9,0.5,2.4,2.0,20.9
21.0,2,7.8,18.7,1.4,5.1,6.3,13.6,3.0,3.6,1.0,5.2,6.2,6.0,0.8,0.6,3.3,2.8,19.9
20.0,1,1.3,3.6,0.9,2.7,0.4,0.9,0.3,0.4,0.7,1.3,1.9,0.6,0.2,0.1,0.4,1.2,3.8
27.0,4,3.6,7.7,1.2,3.3,2.4,4.4,1.3,1.6,1.2,3.6,4.8,1.6,1.0,0.4,1.1,2.0,9.6
23.0,4,3.5,7.8,1.1,3.6,2.4,4.2,1.6,1.9,0.5,1.8,2.2,1.4,1.0,0.4,1.2,1.8,9.7
23.0,4,3.1,6.8,0.9,2.8,2.2,4.0,1.5,1.7,0.4,1.2,1.6,1.0,0.8,0.4,0.8,1.6,8.4
23.0,4,3.9,8.8,1.4,4.4,2.5,4.4,1.8,2.1,0.6,2.3,2.9,1.9,1.2,0.3,1.6,2.0,11.0
21.0,2,3.5,8.0,0.9,2.3,2.6,5.7,2.6,3.1,0.1,1.5,1.7,1.4,0.4,0.1,1.1,1.0,10.6
26.0,4,5.3,11.3,2.5,6.1,2.9,5.2,2.4,2.9,0.8,3.6,4.4,1.9,1.2,0.3,0.9,2.0,15.5
26.0,4,4.8,10.2,2.6,5.8,2.2,4.4,1.6,1.9,0.8,3.0,3.8,1.5,0.9,0.4,0.6,1.7,13.9
26.0,4,5.6,12.0,2.3,6.2,3.3,5.8,3.0,3.5,0.8,4.0,4.8,2.1,1.4,0.3,1.1,2.2,16.6
28.0,8,3.9,9.4,1.4,3.9,2.5,5.6,1.0,1.3,0.3,2.0,2.2,4.5,0.7,0.2,1.7,1.8,10.3
28.0,7,4.3,10.0,1.7,4.4,2.6,5.6,1.8,2.4,0.7,3.1,3.8,3.9,1.0,0.3,1.6,2.3,12.1
25.0,2,0.9,2.1,0.4,0.9,0.4,1.3,0.7,1.1,0.1,0.6,0.7,0.9,0.3,0.0,0.3,0.3,2.9
27.0,6,3.1,6.9,1.5,4.1,1.6,2.8,1.0,1.4,0.3,2.0,2.3,1.5,0.5,0.1,0.7,1.6,8.7
22.0,2,2.5,3.9,0.1,0.2,2.4,3.6,0.6,1.1,2.1,3.4,5.5,1.3,0.5,0.9,1.2,2.1,5.7
27.0,1,0.5,1.0,0.0,0.0,0.5,1.0,0.0,1.0,1.0,0.0,1.0,0.5,0.0,0.0,1.0,1.0,1.0
25.0,5,2.0,3.3,0.1,0.6,1.8,2.7,0.8,1.1,0.7,2.3,3.0,0.6,0.3,0.3,0.5,1.2,4.9
30.0,6,3.4,7.0,0.8,2.5,2.6,4.5,1.7,2.2,2.1,3.5,5.5,0.4,0.6,0.8,0.5,1.9,9.4
25.0,2,2.7,7.2,1.2,3.8,1.5,3.5,1.3,1.6,0.4,2.1,2.5,1.4,0.5,0.2,0.9,1.4,7.9
37.0,18,5.0,11.3,1.7,4.4,3.3,6.9,2.3,2.7,0.5,3.8,4.3,8.9,1.5,0.4,1.9,2.1,13.9
26.0,4,1.0,1.0,0.0,0.0,1.0,1.0,0.0,0.0,0.0,0.0,0.0,0.0,0.0,0.0,1.0,2.0,2.0
21.0,1,1.9,3.8,0.4,1.3,1.4,2.5,0.5,0.8,0.6,1.8,2.4,0.8,0.5,0.2,0.5,1.3,4.7
22.0,1,1.2,2.6,0.0,0.2,1.2,2.4,0.6,1.0,1.4,1.5,2.9,0.5,0.4,1.0,0.3,2.2,3.1
27.0,7,5.9,11.5,1.6,4.2,4.3,7.3,3.2,4.2,1.3,6.0,7.3,1.8,0.4,1.1,1.8,2.5,16.6
24.0,3,1.6,4.5,1.0,3.2,0.6,1.3,0.6,0.8,1.0,2.6,3.6,1.4,0.7,0.4,0.6,1.5,4.7
28.0,9,5.4,8.2,0.0,0.0,5.4,8.2,1.2,2.0,4.0,7.1,11.0,0.9,0.7,1.2,0.8,2.1,12.0
22.0,4,3.6,8.0,1.7,4.6,1.8,3.4,0.8,0.9,0.2,2.6,2.9,2.8,0.7,0.1,1.0,1.6,9.7
27.0,4,2.0,5.1,0.4,2.0,1.6,3.1,0.6,1.0,1.1,2.3,3.4,1.6,0.6,0.1,0.3,1.9,5.0
30.0,10,2.5,3.9,0.0,0.1,2.5,3.8,1.6,2.3,1.7,2.6,4.3,0.7,0.2,0.3,0.9,2.2,6.5
22.0,3,4.6,10.2,1.3,3.4,3.4,6.7,2.5,2.8,0.8,4.0,4.8,3.9,0.6,0.5,1.5,2.6,13.0
23.0,1,0.4,1.3,0.4,1.1,0.0,0.1,0.0,0.0,0.1,0.9,1.0,0.6,0.0,0.0,0.0,0.4,1.3
24.0,5,4.9,9.8,1.0,2.5,3.9,7.2,3.4,4.1,0.8,1.4,2.2,2.9,0.6,0.1,1.8,2.3,14.3
23.0,2,3.9,7.9,2.2,5.2,1.7,2.7,1.0,1.2,0.4,2.4,2.8,1.2,0.4,0.1,0.7,1.3,11.1
31.0,12,2.4,5.7,1.1,2.9,1.3,2.8,0.9,1.2,0.3,1.4,1.7,3.5,0.5,0.1,0.9,1.4,6.9
26.0,8,6.3,13.4,2.7,6.9,3.5,6.5,2.5,3.0,0.5,2.5,3.0,6.2,1.0,0.4,2.6,2.0,17.8
26.0,8,6.3,13.5,2.7,7.0,3.5,6.4,2.6,3.1,0.5,2.5,3.1,6.2,1.1,0.4,2.7,2.2,17.9
26.0,8,6.3,13.0,2.7,6.5,3.6,6.5,2.1,2.9,0.4,2.5,2.9,6.1,0.6,0.5,2.3,1.4,17.4
20.0,2,1.4,4.2,0.7,2.5,0.7,1.7,0.4,0.6,0.3,1.4,1.7,2.3,0.5,0.1,1.5,1.0,4.0
23.0,2,1.8,4.2,0.5,1.6,1.3,2.5,0.5,0.8,0.4,1.1,1.5,1.2,0.4,0.4,0.6,1.1,4.6
20.0,1,0.8,1.9,0.2,0.7,0.7,1.2,0.4,0.6,0.3,0.7,1.0,0.6,0.3,0.1,0.2,0.6,2.2
27.0,7,1.3,2.1,0.2,0.4,1.1,1.7,0.5,0.7,1.0,2.0,3.0,0.4,0.2,0.5,0.6,1.3,3.5
27.0,7,0.9,1.7,0.0,0.1,0.9,1.5,0.7,0.9,0.8,1.7,2.5,0.2,0.1,0.5,0.4,0.8,2.5
27.0,7,1.8,2.6,0.5,0.7,1.3,1.8,0.4,0.5,1.3,2.3,3.5,0.6,0.3,0.5,0.7,2.0,4.6
32.0,11,9.6,20.7,4.2,11.3,5.4,9.4,8.8,9.6,0.8,4.0,4.8,7.3,0.9,0.3,3.3,1.9,32.2
30.0,6,2.7,6.1,1.5,3.3,1.2,2.8,1.3,1.4,0.5,2.5,3.0,1.3,0.4,0.1,1.1,1.6,8.2
24.0,4,3.7,5.1,0.0,0.0,3.7,5.1,1.6,2.4,2.1,3.5,5.6,1.1,0.4,1.3,1.1,2.4,9.0
30.0,6,3.0,6.3,0.3,1.6,2.7,4.7,0.7,1.7,1.0,2.1,3.1,1.3,0.3,0.9,0.4,1.0,7.0
35.0,14,2.0,4.5,1.5,3.4,0.5,1.1,0.1,0.1,0.3,1.0,1.3,0.5,0.5,0.3,0.9,1.5,5.5
35.0,14,1.0,3.7,1.0,2.7,0.0,1.0,0.0,0.0,0.3,1.0,1.3,0.7,0.3,0.0,1.0,2.0,3.0
35.0,14,2.4,4.8,1.6,3.6,0.8,1.1,0.1,0.1,0.3,1.0,1.3,0.5,0.6,0.4,0.9,1.3,6.5
29.0,7,1.7,3.5,0.7,2.0,1.0,1.6,0.8,1.1,0.2,1.5,1.7,0.8,0.3,0.2,0.5,1.2,4.8
28.0,6,2.2,4.9,0.8,2.0,1.4,2.8,1.1,1.3,0.9,2.7,3.6,1.3,0.4,0.1,1.0,1.7,6.4
28.0,6,2.1,4.8,0.7,1.9,1.3,2.9,1.0,1.2,1.1,2.8,3.8,1.5,0.4,0.1,1.0,1.9,5.8
28.0,6,2.6,5.0,0.9,2.3,1.7,2.7,1.4,1.6,0.7,2.6,3.3,0.9,0.4,0.1,1.0,1.5,7.4
22.0,4,1.9,4.3,0.5,1.2,1.5,3.0,0.9,1.6,0.8,2.4,3.2,0.9,0.5,0.8,0.6,1.0,5.2
22.0,4,2.0,4.4,0.5,1.3,1.5,3.1,1.0,1.8,0.8,2.6,3.4,0.9,0.5,0.8,0.6,1.0,5.4
22.0,4,1.7,3.6,0.3,1.1,1.4,2.4,0.3,0.7,0.7,1.6,2.3,0.9,0.4,0.7,0.7,1.3,4.0
23.0,1,1.3,3.0,0.8,2.5,0.5,0.5,0.5,0.5,0.3,1.3,1.5,0.3,0.0,0.3,0.0,0.5,3.8
23.0,4,7.6,16.4,2.4,6.0,5.1,10.4,4.0,4.7,0.4,2.3,2.7,7.8,1.2,0.1,2.9,2.1,21.6
23.0,2,1.6,3.4,0.0,0.5,1.5,2.9,0.5,0.7,0.5,0.8,1.3,0.9,0.4,0.0,0.8,1.3,3.7
21.0,1,2.6,6.0,0.9,3.0,1.6,3.0,0.6,0.9,0.7,2.0,2.8,0.8,0.4,0.3,0.8,1.5,6.7
24.0,2,2.3,5.0,0.8,2.5,1.5,2.5,0.3,0.4,0.2,1.1,1.3,2.3,0.6,0.2,0.8,1.4,5.6
27.0,4,0.7,2.0,0.4,1.1,0.3,0.9,0.4,0.6,0.2,1.1,1.4,0.5,0.3,0.1,0.5,0.9,2.1
27.0,4,0.7,2.3,0.5,1.3,0.3,1.0,0.4,0.6,0.3,1.3,1.6,0.5,0.4,0.1,0.6,1.0,2.3
27.0,4,0.4,0.5,0.1,0.3,0.3,0.3,0.1,0.5,0.1,0.4,0.5,0.5,0.3,0.0,0.0,0.4,1.0
21.0,2,1.9,3.6,0.1,0.2,1.8,3.3,0.7,1.1,2.1,2.1,4.2,0.8,0.3,0.7,0.9,1.9,4.7
25.0,6,9.3,18.2,1.6,5.0,7.7,13.2,4.7,6.0,0.5,3.6,4.2,6.1,1.1,0.3,2.5,2.4,25.0
25.0,4,5.7,12.3,1.5,4.3,4.2,8.0,2.6,3.1,0.7,3.6,4.2,1.4,0.5,0.3,1.2,3.0,15.4
24.0,5,3.6,8.5,2.0,5.2,1.6,3.2,0.9,1.1,0.9,3.2,4.1,2.6,1.6,0.5,1.3,2.5,10.1
34.0,15,2.3,2.9,0.0,0.0,2.2,2.9,0.6,1.2,1.3,3.8,5.2,0.9,0.3,0.6,1.2,1.8,5.1
33.0,14,8.9,17.6,0.6,1.9,8.3,15.7,6.2,7.1,0.5,4.2,4.6,5.1,1.1,0.5,2.1,2.5,24.5
26.0,4,1.7,4.0,1.0,2.9,0.6,1.1,0.3,0.5,0.5,3.0,3.4,0.8,0.6,0.5,0.4,2.0,4.7
24.0,5,7.8,13.2,0.1,0.4,7.7,12.9,2.3,3.0,2.6,7.4,10.0,1.7,0.6,0.8,1.8,2.8,18.0
26.0,6,8.3,17.8,1.8,5.2,6.5,12.6,2.1,2.6,0.7,4.5,5.3,6.1,1.5,0.3,2.2,1.4,20.5
30.0,8,2.8,5.8,0.8,2.4,1.9,3.4,1.0,1.2,1.2,2.4,3.6,3.9,1.8,0.3,0.9,1.2,7.4
22.0,3,3.3,7.6,0.9,3.1,2.4,4.6,1.6,2.2,1.0,5.4,6.4,2.8,0.9,0.4,1.6,2.8,9.2
29.0,10,4.1,9.8,1.1,3.4,3.0,6.4,3.3,3.8,0.3,2.2,2.5,4.5,0.8,0.2,1.7,2.2,12.6
25.0,6,3.4,8.4,0.4,2.1,3.0,6.3,1.4,2.0,0.5,2.6,3.1,4.8,1.4,0.5,1.5,2.3,8.8
29.0,3,0.0,1.0,0.0,0.5,0.0,0.5,0.0,0.0,0.0,0.0,0.0,0.0,0.0,0.0,0.0,0.0,0.0
22.0,1,0.4,1.0,0.0,0.0,0.4,1.0,0.0,0.0,0.2,0.0,0.2,0.0,0.0,0.0,0.0,0.2,0.8
25.0,7,1.8,3.6,0.4,1.3,1.4,2.3,1.0,1.3,0.9,1.5,2.4,0.5,0.5,0.6,0.4,1.3,5.0
34.0,14,2.3,5.9,0.7,2.3,1.6,3.6,0.4,0.4,0.3,1.2,1.5,1.7,0.3,0.2,0.8,0.7,5.6
28.0,6,4.3,9.2,1.8,4.8,2.5,4.5,2.0,2.3,0.6,2.9,3.6,3.9,0.7,0.9,1.2,2.2,12.4
24.0,3,7.8,16.2,2.9,7.0,4.9,9.2,3.1,3.5,0.7,4.3,5.0,4.4,1.0,0.4,2.2,2.6,21.5
26.0,8,9.9,20.1,2.1,6.0,7.8,14.2,5.8,6.8,0.9,3.7,4.5,5.5,1.0,0.3,2.7,3.0,27.8
22.0,3,6.9,15.7,2.7,7.0,4.2,8.7,2.1,2.6,0.2,3.7,3.9,3.6,1.1,0.4,1.5,1.5,18.5
23.0,3,0.2,1.7,0.2,0.7,0.0,1.0,0.0,0.0,1.0,0.7,1.7,1.3,0.8,0.0,0.5,1.5,0.5
27.0,5,2.2,5.9,1.6,4.6,0.6,1.3,1.3,1.8,0.3,1.4,1.7,2.7,0.6,0.2,0.7,1.1,7.4
27.0,5,1.6,4.4,1.2,3.6,0.4,0.8,0.8,1.1,0.2,1.1,1.4,2.2,0.6,0.2,0.5,0.9,5.3
27.0,5,3.8,10.0,2.7,7.4,1.2,2.6,2.7,3.6,0.4,2.2,2.5,4.0,0.8,0.3,1.3,1.6,13.0
33.0,10,2.0,4.0,0.3,1.0,1.7,2.9,0.9,1.3,0.9,2.6,3.5,0.7,0.2,0.5,0.7,2.0,5.2
33.0,10,2.1,4.3,0.4,1.2,1.8,3.1,1.1,1.5,0.9,2.7,3.6,0.5,0.2,0.5,0.6,2.0,5.7
33.0,10,1.6,2.8,0.1,0.3,1.5,2.5,0.1,0.6,0.8,2.4,3.1,1.3,0.3,0.6,0.8,1.8,3.5
27.0,6,5.4,13.6,2.0,6.0,3.4,7.6,1.6,2.1,0.6,2.7,3.3,2.6,0.9,0.2,1.4,3.3,14.3
26.0,7,7.3,11.9,0.4,1.1,6.9,10.8,4.1,5.5,3.2,9.1,12.3,7.3,0.8,0.5,2.9,3.5,19.1
19.0,1,1.6,3.1,0.0,0.1,1.6,2.9,0.6,0.9,1.6,2.0,3.6,0.9,0.4,0.7,0.5,2.0,3.9
26.0,6,10.0,20.6,3.6,9.3,6.4,11.3,4.7,5.4,0.9,3.3,4.3,4.4,1.5,0.4,2.6,2.5,28.3
21.0,1,1.0,2.5,0.0,1.0,1.0,1.5,0.0,0.0,0.0,1.0,1.0,0.0,0.0,0.0,0.0,0.0,2.0
26.0,5,3.3,7.5,2.1,5.3,1.2,2.3,0.8,1.0,1.1,3.4,4.5,3.5,1.3,0.1,1.6,1.8,9.4
29.0,7,3.0,7.6,1.7,5.1,1.2,2.5,0.7,0.9,1.7,3.1,4.8,1.5,0.8,0.5,0.9,2.2,8.3
29.0,7,3.2,7.8,1.9,5.4,1.3,2.3,0.8,1.0,1.7,3.0,4.7,1.5,1.0,0.5,0.9,2.0,9.1
29.0,7,2.6,7.3,1.4,4.7,1.2,2.7,0.6,0.7,1.8,3.1,4.9,1.6,0.7,0.6,1.0,2.5,7.2
31.0,9,3.7,8.2,1.9,4.7,1.8,3.5,0.8,1.1,0.4,1.8,2.2,1.4,0.2,0.1,0.9,1.8,10.2
32.0,11,3.4,6.5,0.5,1.8,2.9,4.7,1.1,1.5,0.9,6.3,7.2,6.8,1.0,0.8,2.8,3.1,8.5
25.0,5,2.7,4.3,0.1,0.2,2.7,4.1,1.1,1.6,1.7,3.7,5.4,1.3,0.5,1.3,0.9,2.2,6.6
25.0,1,1.2,3.0,0.3,1.3,0.9,1.7,0.2,0.2,0.1,1.5,1.6,1.5,0.7,0.3,0.2,1.5,2.9
25.0,1,1.0,2.8,0.2,1.2,0.8,1.6,0.0,0.0,0.2,1.6,1.8,1.0,0.8,0.6,0.2,2.0,2.2
25.0,1,1.3,3.1,0.4,1.3,0.9,1.8,0.3,0.3,0.1,1.4,1.5,1.7,0.6,0.1,0.2,1.3,3.3
22.0,2,3.0,8.3,1.3,3.6,1.7,4.7,0.5,0.8,0.1,1.1,1.2,2.0,0.2,0.1,1.1,0.7,7.9
28.0,5,2.1,5.6,1.5,4.6,0.6,1.1,0.7,0.8,0.2,1.5,1.6,1.1,0.3,0.0,0.7,1.8,6.4
31.0,9,2.6,3.5,0.0,0.1,2.6,3.5,1.5,2.2,2.0,2.2,4.1,0.9,0.6,0.3,0.9,2.8,6.7
26.0,3,0.7,1.0,0.3,0.7,0.3,0.3,0.0,0.0,0.0,0.0,0.0,0.3,0.3,0.0,0.3,0.0,1.7
19.0,1,1.5,3.5,0.5,1.5,1.0,2.1,0.4,0.7,0.6,2.6,3.2,2.3,0.7,0.2,1.0,1.7,3.8
30.0,7,1.5,3.6,1.2,3.1,0.3,0.4,0.3,0.3,0.2,1.0,1.2,0.5,0.2,0.2,0.2,1.2,4.6
27.0,5,2.3,5.1,0.6,1.6,1.8,3.4,1.9,2.0,0.2,1.2,1.5,1.3,0.6,0.2,0.9,1.6,7.1
34.0,15,4.2,9.5,1.9,5.2,2.3,4.3,2.1,2.5,0.2,1.7,1.9,2.7,0.6,0.4,1.5,1.1,12.4
34.0,15,4.5,10.2,1.8,5.2,2.7,5.0,2.3,2.9,0.3,1.8,2.1,2.9,0.6,0.4,1.8,1.0,13.1
34.0,15,3.7,8.0,2.1,5.0,1.5,2.9,1.5,1.7,0.2,1.5,1.7,2.1,0.6,0.4,1.0,1.5,11.0
25.0,2,2.5,5.7,0.6,2.2,1.9,3.5,1.3,1.9,1.1,1.7,2.8,0.7,0.7,0.1,0.9,2.3,7.0
25.0,2,1.9,4.1,0.3,1.3,1.6,2.7,0.7,1.2,1.0,1.3,2.3,0.5,0.6,0.0,0.7,2.0,4.9
25.0,2,3.4,7.9,1.0,3.4,2.4,4.5,2.0,2.8,1.2,2.2,3.5,1.0,0.8,0.2,1.1,2.6,9.7
30.0,11,2.1,6.1,1.3,4.2,0.8,1.9,0.7,0.8,0.1,1.7,1.8,1.3,0.6,0.1,0.8,1.7,6.1
21.0,2,6.6,12.0,0.3,1.3,6.4,10.7,2.6,3.8,2.4,6.6,9.0,2.8,0.8,1.5,1.8,2.8,16.2
31.0,3,0.4,1.6,0.4,1.4,0.0,0.3,0.1,0.3,0.0,0.3,0.3,1.1,0.8,0.0,0.4,0.4,1.3
24.0,5,0.0,3.0,0.0,1.0,0.0,2.0,0.0,0.0,1.0,1.0,2.0,1.0,0.0,0.0,0.0,0.0,0.0
29.0,8,0.9,1.8,0.4,0.9,0.5,0.8,0.4,0.4,0.2,1.3,1.4,0.9,0.2,0.1,0.3,0.6,2.5
29.0,8,1.0,1.7,0.4,0.9,0.5,0.8,0.4,0.5,0.1,1.3,1.4,0.8,0.2,0.0,0.3,0.8,2.7
29.0,8,0.6,1.9,0.2,1.0,0.4,0.9,0.4,0.4,0.4,1.2,1.6,1.1,0.1,0.3,0.0,0.1,1.8
24.0,6,1.0,2.8,0.4,1.4,0.7,1.4,0.5,0.7,0.1,1.2,1.3,1.2,0.3,0.1,0.6,1.4,2.9
21.0,2,6.8,14.0,1.6,4.5,5.2,9.5,3.4,4.0,0.9,3.2,4.1,3.5,1.0,0.2,2.1,2.3,18.6
28.0,7,6.3,16.1,3.0,8.8,3.3,7.3,3.7,4.1,0.4,3.6,4.1,7.2,1.8,0.6,2.0,2.8,19.3
25.0,6,1.3,3.0,0.5,1.2,0.8,1.8,0.7,1.0,0.2,1.0,1.1,0.6,0.3,0.1,0.6,0.5,3.8
26.0,4,3.4,8.3,1.7,5.1,1.6,3.2,1.0,1.1,0.4,1.7,2.1,2.5,0.9,0.1,1.4,2.3,9.4
29.0,2,2.7,7.0,2.0,6.0,0.7,1.0,0.7,0.7,0.0,2.0,2.0,1.7,0.7,0.0,0.0,1.7,8.0
36.0,13,0.7,1.8,0.4,1.0,0.3,0.8,0.1,0.2,0.2,0.5,0.7,0.5,0.4,0.1,0.2,0.6,2.0
26.0,4,1.4,3.7,1.2,3.3,0.2,0.4,0.9,1.0,0.2,1.1,1.4,0.5,0.4,0.1,0.4,1.1,4.8
26.0,4,1.3,3.8,1.2,3.4,0.2,0.3,0.9,1.0,0.2,1.2,1.4,0.5,0.5,0.1,0.4,1.2,4.8
26.0,4,1.4,3.4,1.1,2.8,0.3,0.7,0.8,0.9,0.1,1.1,1.2,0.3,0.1,0.1,0.1,0.7,4.8
28.0,9,2.9,6.4,2.0,4.5,0.9,1.9,0.6,0.6,0.4,1.6,2.0,1.2,0.9,0.3,0.6,1.9,8.3
30.0,7,1.9,3.1,0.6,1.2,1.3,2.0,0.3,0.3,1.1,2.0,3.1,1.4,1.0,0.2,0.7,2.0,4.6
30.0,7,1.6,2.7,0.6,1.1,1.0,1.6,0.3,0.3,0.7,1.9,2.6,1.5,1.1,0.1,0.8,1.9,4.1
30.0,7,2.4,4.0,0.6,1.3,1.9,2.7,0.3,0.4,2.0,2.3,4.3,1.1,0.9,0.6,0.6,2.0,5.7
24.0,5,6.1,14.2,2.5,6.8,3.6,7.3,2.6,3.1,0.5,2.2,2.6,1.6,1.6,0.2,0.8,1.5,17.4
36.0,15,1.7,3.6,0.7,2.1,1.0,1.5,0.9,1.2,0.3,1.5,1.8,2.4,0.6,0.1,0.7,1.2,5.0
36.0,15,1.7,3.8,0.7,2.1,1.0,1.7,1.0,1.3,0.4,1.5,1.9,2.5,0.5,0.1,0.8,1.2,5.0
36.0,15,1.7,3.1,1.0,1.9,0.7,1.2,0.7,0.8,0.2,1.5,1.6,1.9,0.6,0.3,0.6,1.3,5.2
29.0,7,2.8,6.4,2.0,4.9,0.9,1.5,0.5,0.6,0.2,2.1,2.4,1.0,0.4,0.2,0.7,1.9,8.2
28.0,10,11.2,20.3,0.7,2.7,10.5,17.6,7.9,12.3,2.2,9.6,11.8,5.7,0.8,0.8,3.9,3.1,31.1
23.0,4,1.8,3.3,0.2,0.7,1.7,2.6,0.6,1.1,1.6,2.0,3.6,1.0,0.4,0.7,0.6,1.7,4.4
23.0,4,1.3,2.5,0.2,0.7,1.1,1.8,0.5,1.1,1.2,1.1,2.3,0.9,0.4,0.5,0.6,1.6,3.3
23.0,4,2.5,4.3,0.1,0.7,2.4,3.6,0.7,1.1,2.1,3.1,5.2,1.2,0.4,0.9,0.6,1.8,5.8
36.0,15,2.4,5.8,0.9,2.5,1.5,3.3,0.5,0.8,0.3,1.1,1.4,2.6,0.2,0.1,1.1,1.1,6.3
36.0,15,2.5,5.9,0.9,2.5,1.6,3.4,0.5,0.8,0.3,1.1,1.4,2.7,0.2,0.1,1.1,1.2,6.4
36.0,15,2.0,5.1,1.0,2.4,1.0,2.7,0.6,0.6,0.4,1.3,1.7,1.7,0.3,0.0,1.0,0.3,5.6
32.0,13,5.5,11.6,1.0,3.2,4.5,8.4,2.6,3.2,0.7,3.6,4.3,4.1,0.8,0.2,2.0,1.4,14.7
33.0,10,1.5,3.8,0.7,2.4,0.8,1.4,0.3,0.4,0.9,2.6,3.5,1.7,0.1,0.5,1.0,1.8,3.9
24.0,4,2.7,6.0,1.5,3.7,1.3,2.3,1.2,1.5,1.1,3.5,4.6,1.7,0.5,0.4,1.0,2.4,8.1
27.0,5,3.4,7.7,2.0,5.1,1.4,2.7,1.6,1.8,0.8,2.4,3.3,2.3,0.9,0.2,1.0,1.6,10.4
21.0,2,0.7,1.8,0.1,0.4,0.6,1.3,0.3,0.8,0.1,1.1,1.2,0.2,0.3,0.3,0.4,0.8,1.8
24.0,5,3.8,6.7,0.1,0.4,3.8,6.3,1.6,2.6,1.0,2.4,3.5,1.0,0.9,0.3,1.3,2.2,9.3
30.0,11,4.6,9.6,1.6,4.3,3.0,5.3,4.3,5.0,1.1,3.4,4.5,1.6,0.7,0.1,1.0,1.3,15.0
26.0,3,1.7,4.0,0.7,2.0,1.0,2.0,0.2,0.5,1.1,2.4,3.5,0.8,0.7,0.3,0.8,1.5,4.4
24.0,2,3.6,7.6,0.8,2.5,2.7,5.1,1.9,2.4,1.5,2.6,4.1,2.5,1.6,0.6,1.3,3.2,9.8
23.0,3,5.2,11.6,2.1,5.6,3.1,6.0,2.5,3.1,0.7,3.4,4.2,3.4,1.0,0.2,1.2,2.0,14.9
22.0,3,2.3,4.7,0.8,2.3,1.5,2.4,1.0,1.4,0.7,1.8,2.5,1.1,0.7,0.4,0.6,2.1,6.4
24.0,5,2.1,4.0,0.1,0.5,2.0,3.5,0.6,0.9,2.5,4.0,6.5,1.2,0.6,0.8,0.8,2.6,5.0
21.0,2,2.8,5.0,0.0,0.2,2.8,4.8,1.5,2.3,1.8,2.7,4.5,0.8,0.5,1.5,0.8,2.4,7.2
23.0,3,3.1,7.0,2.2,5.4,0.9,1.6,1.1,1.4,0.4,2.0,2.4,1.2,0.7,0.1,0.5,1.4,9.5
24.0,2,2.3,5.5,1.4,3.9,0.9,1.6,0.6,0.8,0.5,2.2,2.8,0.8,0.5,0.5,0.6,2.0,6.7
23.0,1,0.9,2.2,0.2,0.6,0.7,1.5,0.3,0.3,0.3,1.2,1.5,0.2,0.3,0.2,0.1,0.6,2.4
24.0,4,1.6,3.7,0.4,1.4,1.2,2.3,0.5,1.0,0.5,2.0,2.5,0.9,0.4,0.2,0.7,1.3,4.1
21.0,3,3.9,8.8,1.3,4.1,2.6,4.7,2.2,3.0,2.3,5.8,8.1,1.4,0.4,0.7,1.4,2.7,11.3
21.0,2,0.5,3.0,0.2,1.7,0.3,1.3,0.3,0.3,0.3,1.7,2.0,0.7,0.2,0.0,0.3,0.7,1.5
34.0,13,1.2,3.0,0.0,0.3,1.2,2.8,0.0,0.1,0.1,1.1,1.3,2.3,0.2,0.2,1.0,0.8,2.5
28.0,2,1.4,3.8,1.0,2.9,0.5,0.9,0.4,0.5,0.8,1.6,2.3,0.9,0.6,0.4,0.4,2.0,4.2
25.0,7,4.3,6.8,0.0,0.0,4.3,6.7,2.2,3.1,3.1,6.8,9.9,1.0,0.4,1.3,1.5,2.9,10.8
20.0,1,0.7,1.6,0.2,0.6,0.5,1.0,0.1,0.2,0.2,0.6,0.8,0.9,0.2,0.2,0.3,0.4,1.6
20.0,2,1.4,3.4,0.6,1.8,0.8,1.7,0.5,0.7,0.5,1.7,2.2,0.5,0.3,0.3,0.6,1.0,3.8
23.0,4,9.3,19.9,1.5,4.9,7.8,15.0,6.1,8.1,1.0,4.9,5.9,8.1,1.1,0.3,3.4,1.6,26.2
32.0,9,2.4,4.4,0.7,1.9,1.6,2.5,0.9,1.2,1.3,2.3,3.6,0.9,0.4,0.4,0.9,1.8,6.4
35.0,15,1.9,3.0,0.0,0.1,1.9,2.9,0.6,1.0,0.7,1.8,2.5,0.3,0.1,0.6,0.9,1.3,4.4
19.0,1,4.6,11.3,1.5,4.9,3.1,6.3,2.1,2.6,1.5,5.7,7.2,1.3,0.5,0.9,1.3,2.9,12.8
20.0,1,1.5,3.5,0.3,1.0,1.2,2.5,0.6,0.8,0.9,1.5,2.3,0.6,0.2,0.2,0.5,1.2,3.9
25.0,1,0.5,1.1,0.2,0.5,0.3,0.6,0.1,0.2,0.4,0.6,1.0,0.2,0.2,0.1,0.1,0.5,1.2
24.0,1,1.0,3.0,1.0,3.0,0.0,0.0,0.0,0.0,0.0,4.0,4.0,7.0,3.0,0.0,2.0,3.0,3.0
20.0,1,3.0,6.9,1.3,3.3,1.7,3.7,1.4,1.6,0.2,1.6,1.9,1.4,0.4,0.1,1.0,1.3,8.8
20.0,1,5.5,13.3,1.6,4.7,3.9,8.6,3.6,4.8,1.0,2.9,3.9,5.2,0.8,0.2,3.2,3.3,16.3
22.0,3,4.7,9.1,1.4,3.4,3.3,5.7,1.3,1.8,1.2,2.7,3.9,1.9,0.9,1.0,1.4,3.4,12.1
20.0,2,1.1,2.2,0.1,0.3,0.9,1.9,0.4,0.5,0.4,0.5,0.9,0.5,0.4,0.2,0.2,0.9,2.6
32.0,11,2.5,5.2,1.3,3.1,1.2,2.2,0.6,0.7,0.9,2.9,3.8,1.5,0.7,0.3,0.4,1.5,6.9
27.0,3,3.5,7.4,0.4,1.5,3.1,5.9,1.6,2.2,1.3,2.5,3.8,2.7,0.7,0.2,1.5,3.4,9.1
21.0,1,1.1,2.7,0.7,2.0,0.4,0.7,0.2,0.3,0.5,1.3,1.8,0.6,0.3,0.1,0.5,1.4,3.0
27.0,7,5.4,8.6,0.0,0.0,5.4,8.6,1.7,2.8,3.3,5.8,9.1,2.7,0.9,1.2,1.7,2.7,12.5
27.0,7,5.2,8.4,0.0,0.0,5.2,8.4,1.7,2.8,3.3,5.7,9.0,3.1,0.8,1.1,2.1,2.6,12.1
27.0,7,5.8,8.8,0.0,0.0,5.8,8.8,1.6,2.8,3.2,5.9,9.1,2.2,1.2,1.3,1.1,3.0,13.1
26.0,5,8.6,17.6,2.0,4.7,6.7,12.8,4.8,5.8,0.6,3.0,3.5,6.2,0.9,0.2,2.1,2.2,24.0
19.0,1,3.9,5.9,0.0,0.0,3.9,5.9,1.4,2.3,3.4,5.5,8.9,1.1,0.7,0.9,1.4,2.7,9.1
20.0,2,7.4,17.9,2.5,7.3,5.0,10.6,4.8,6.1,0.6,3.2,3.7,3.7,0.8,0.2,2.6,1.7,22.1
21.0,2,2.3,4.6,0.4,1.5,1.8,3.1,0.7,1.1,0.7,3.3,4.0,1.2,0.5,0.5,0.6,1.6,5.6
25.0,4,3.5,7.7,1.0,2.9,2.6,4.8,1.5,1.7,0.8,3.5,4.3,1.6,1.0,0.4,1.2,2.6,9.4
25.0,4,3.9,8.8,1.2,3.6,2.8,5.2,1.6,1.9,0.8,4.0,4.8,2.0,1.2,0.5,1.4,2.8,10.6
25.0,4,2.5,5.1,0.5,1.3,2.0,3.9,1.2,1.4,0.8,2.4,3.2,0.8,0.7,0.2,0.5,2.1,6.7
22.0,3,3.6,7.5,0.8,2.8,2.8,4.7,1.5,2.0,1.9,3.9,5.8,1.0,0.3,0.9,1.1,2.3,9.4
21.0,2,3.5,8.4,1.2,3.8,2.3,4.6,1.6,2.2,1.0,2.0,3.0,2.9,1.3,0.5,1.8,2.3,9.9
21.0,1,5.5,10.6,1.0,2.7,4.5,7.9,2.1,2.5,1.1,3.4,4.5,3.3,1.4,0.5,1.6,2.5,14.1
23.0,1,2.1,3.7,0.4,1.1,1.7,2.6,0.9,1.2,0.8,2.1,2.9,0.7,0.6,0.1,0.3,1.2,5.4
25.0,6,7.3,16.0,2.6,6.6,4.6,9.4,2.8,3.3,0.7,3.2,4.0,6.2,1.0,0.2,2.2,1.6,20.0
23.0,1,1.2,2.8,0.4,1.2,0.8,1.6,0.2,0.4,0.2,1.0,1.2,0.8,0.8,0.4,0.8,1.2,3.0
23.0,1,1.5,3.3,0.5,1.3,1.0,2.0,0.3,0.5,0.3,1.0,1.3,1.0,1.0,0.5,1.0,1.3,3.8
23.0,1,0.0,1.0,0.0,1.0,0.0,0.0,0.0,0.0,0.0,1.0,1.0,0.0,0.0,0.0,0.0,1.0,0.0
22.0,2,2.0,5.7,1.0,3.2,1.1,2.5,0.6,0.9,0.2,1.9,2.1,1.2,0.4,0.1,0.9,1.4,5.6
33.0,14,6.4,14.5,2.8,7.2,3.6,7.3,5.4,6.2,0.7,5.4,6.1,10.7,1.2,0.5,3.4,1.9,21.0
35.0,14,1.2,2.7,0.2,0.8,1.1,1.9,0.2,0.4,0.2,1.4,1.7,0.8,0.4,0.3,0.4,1.8,2.8
21.0,2,4.2,7.5,0.1,0.4,4.1,7.1,1.5,2.2,1.6,4.3,5.9,0.7,0.2,0.6,1.1,2.4,10.0
21.0,2,2.8,4.5,0.0,0.1,2.8,4.4,1.2,1.8,0.9,2.6,3.5,0.7,0.1,0.3,0.7,1.9,6.9
21.0,2,5.4,10.2,0.1,0.8,5.3,9.5,1.8,2.5,2.3,5.8,8.1,0.7,0.2,0.8,1.5,2.9,12.7
22.0,2,2.5,5.3,1.2,2.3,1.3,3.0,0.0,0.0,0.2,0.5,0.7,1.3,0.8,0.0,0.8,0.8,6.2
23.0,1,1.2,3.1,0.4,1.4,0.9,1.7,0.4,0.4,0.8,1.9,2.6,0.3,0.3,0.1,0.2,1.6,3.2
23.0,5,6.6,13.0,1.6,4.5,5.0,8.6,3.8,4.9,1.7,5.0,6.8,1.0,1.0,3.0,1.7,3.6,18.6
23.0,5,3.2,5.8,0.4,1.2,2.8,4.6,1.2,1.8,2.2,5.3,7.5,2.4,1.1,0.3,1.2,2.4,7.9
23.0,5,3.3,6.0,0.4,1.1,3.0,4.9,1.3,2.0,2.3,5.5,7.9,2.7,1.0,0.3,1.3,2.6,8.3
23.0,5,2.8,5.4,0.4,1.3,2.5,4.1,1.1,1.4,1.9,4.8,6.7,1.6,1.2,0.2,1.1,2.2,7.2
26.0,3,2.0,3.5,1.0,2.3,1.0,1.3,0.5,0.5,0.3,1.3,1.5,0.8,0.0,0.5,0.5,0.8,5.5
24.0,6,5.9,9.2,0.0,0.1,5.9,9.1,2.4,3.3,3.3,6.5,9.8,1.7,0.8,1.2,1.4,2.3,14.3
23.0,4,1.7,4.3,0.1,1.2,1.6,3.1,0.9,1.3,1.0,2.8,3.8,0.6,0.6,0.2,0.7,1.4,4.4
23.0,1,1.3,2.9,0.4,1.3,0.9,1.6,0.0,0.1,0.1,1.4,1.6,1.9,0.1,0.0,0.7,0.5,2.9
29.0,4,1.9,3.4,0.4,1.1,1.5,2.3,0.9,1.4,0.8,1.9,2.8,0.7,0.8,0.7,0.6,1.6,5.2
22.0,4,1.8,3.3,0.1,0.6,1.8,2.7,1.2,1.8,0.8,2.0,2.8,0.7,0.4,0.4,0.7,1.4,5.0
24.0,2,2.1,3.6,0.9,1.7,1.3,1.9,2.1,2.3,0.9,2.1,3.0,1.4,0.4,0.6,0.7,2.1,7.3
22.0,3,2.5,3.5,1.0,1.0,1.5,2.5,0.5,1.0,0.0,3.0,3.0,0.5,1.0,0.0,1.5,1.0,6.5
26.0,7,10.1,20.6,2.4,7.3,7.7,13.4,3.9,5.1,1.2,5.7,6.9,3.5,1.1,0.4,2.9,2.6,26.6
23.0,4,4.3,9.6,1.0,3.6,3.3,6.0,1.2,1.5,0.6,2.1,2.6,2.0,0.6,0.1,1.0,1.6,10.8
20.0,1,2.1,4.8,0.9,2.3,1.1,2.5,0.8,1.1,0.9,4.0,4.9,1.6,0.6,0.2,0.8,2.3,5.9
24.0,6,9.8,21.1,3.2,9.3,6.6,11.8,7.2,8.4,1.1,7.7,8.8,4.6,1.1,0.7,2.9,2.2,30.1
23.0,1,4.8,7.8,0.6,1.6,4.2,6.2,0.4,0.6,2.0,1.0,3.0,2.0,0.6,0.4,0.8,2.6,10.6
25.0,2,1.0,2.3,0.2,0.6,0.8,1.6,0.2,0.4,0.2,0.7,0.9,1.2,0.4,0.1,0.2,0.5,2.4
36.0,15,2.9,5.9,0.5,1.9,2.3,4.0,1.6,2.1,0.7,1.9,2.6,1.2,0.3,0.3,0.8,1.8,7.8
28.0,9,6.9,14.5,2.3,5.7,4.6,8.8,4.4,5.4,0.8,3.7,4.5,2.4,0.8,0.8,1.8,2.4,20.5
22.0,2,2.6,5.8,0.9,2.6,1.7,3.2,0.8,1.0,1.7,2.5,4.2,1.0,0.6,0.3,0.4,1.7,6.8
19.0,1,4.5,9.9,0.6,2.4,3.9,7.5,1.4,2.1,1.7,3.6,5.3,2.5,0.8,0.4,1.7,2.5,11.0
24.0,2,1.6,2.1,0.0,0.0,1.6,2.0,0.2,0.3,1.9,2.8,4.7,0.5,0.3,0.5,0.5,1.8,3.4
27.0,5,3.0,7.0,1.8,4.2,1.2,2.8,0.4,0.5,0.4,2.1,2.5,2.4,0.8,0.4,1.0,2.0,8.0
33.0,12,7.5,13.9,0.6,1.6,6.9,12.3,7.4,8.7,2.2,3.7,5.9,5.3,1.8,0.3,1.6,1.3,22.9
27.0,2,2.6,4.9,0.3,1.2,2.3,3.7,1.1,1.5,1.7,2.3,4.1,1.0,0.2,0.4,0.9,1.8,6.6
31.0,9,2.7,5.9,1.9,4.5,0.8,1.4,0.2,0.4,0.3,1.9,2.2,1.4,0.5,0.2,0.6,1.9,7.6
35.0,9,2.3,5.4,1.8,4.4,0.5,1.0,0.4,0.5,0.3,2.5,2.8,3.3,0.7,0.1,1.2,1.6,6.9
23.0,2,0.3,1.6,0.3,1.3,0.0,0.2,0.0,0.0,0.0,0.4,0.4,0.3,0.0,0.0,0.1,0.3,1.0
28.0,7,11.0,20.1,1.0,3.0,10.0,17.1,10.0,11.7,1.7,8.4,10.2,4.2,1.0,1.7,3.4,3.1,33.1
20.0,1,0.9,2.8,0.4,1.8,0.5,0.9,0.2,0.2,0.2,0.7,0.9,0.6,0.4,0.5,0.1,1.2,2.4
25.0,6,5.1,10.0,1.0,3.4,4.1,6.6,2.0,2.5,1.1,5.4,6.5,1.2,0.6,1.0,1.1,3.1,13.1
26.0,4,1.9,4.4,0.8,2.5,1.1,2.0,0.4,0.5,0.9,3.4,4.3,1.4,1.1,0.3,0.5,1.6,5.1
32.0,11,4.1,9.9,1.0,3.2,3.1,6.7,2.3,3.3,0.4,2.3,2.7,5.2,0.8,0.4,2.4,1.7,11.4
20.0,1,2.4,6.1,0.6,2.5,1.8,3.6,0.5,1.0,0.3,1.9,2.3,1.0,0.4,0.3,0.6,1.7,5.8
21.0,1,1.9,5.8,0.8,3.5,1.1,2.3,0.1,0.2,0.4,1.7,2.2,0.4,0.2,0.2,0.2,0.7,4.8
30.0,11,5.6,10.3,0.5,1.4,5.2,8.9,2.3,2.8,2.8,7.3,10.2,1.8,0.3,0.7,2.0,3.1,14.1
25.0,4,2.0,4.8,0.5,1.4,1.5,3.5,0.5,0.8,1.4,2.6,4.0,0.5,1.3,0.4,0.4,0.5,5.0
20.0,2,3.9,7.4,0.8,2.2,3.1,5.2,1.3,2.1,1.0,2.4,3.4,1.9,0.6,0.5,1.4,2.3,9.9
30.0,9,7.5,16.9,2.5,7.5,5.0,9.4,3.3,4.0,1.2,2.9,4.0,4.4,0.5,0.2,3.0,2.0,20.8
24.0,2,2.5,5.7,0.6,1.9,1.9,3.8,0.9,1.1,0.9,2.4,3.3,2.7,0.9,0.4,0.9,1.5,6.6
21.0,1,1.0,3.1,0.3,1.7,0.7,1.4,0.8,1.0,0.3,1.0,1.3,1.2,0.1,0.0,0.8,0.7,3.1
26.0,4,1.4,3.4,0.6,1.8,0.9,1.6,0.3,0.4,0.3,1.1,1.4,3.4,0.7,0.1,0.8,0.7,3.7
24.0,3,3.1,7.2,1.4,3.4,1.7,3.8,1.1,1.4,0.8,2.9,3.7,1.4,0.4,0.2,1.1,1.2,8.7
24.0,3,2.0,5.2,1.1,2.7,0.9,2.5,1.0,1.1,0.8,2.3,3.1,1.0,0.3,0.2,0.9,0.9,6.0
24.0,3,4.9,10.3,1.9,4.5,3.0,5.8,1.3,1.8,0.9,3.8,4.7,2.1,0.5,0.3,1.3,1.7,13.0
23.0,4,6.7,15.6,2.6,7.8,4.1,7.8,4.4,5.1,0.4,2.4,2.7,4.5,0.8,0.3,3.1,2.6,20.4
24.0,2,0.5,1.0,0.5,0.5,0.0,0.5,0.0,0.0,0.0,0.0,0.0,0.5,0.5,0.0,0.0,0.5,1.5
24.0,2,3.3,8.0,1.4,4.0,1.9,4.0,1.1,1.3,0.5,1.9,2.3,3.0,1.1,0.2,1.3,2.0,9.0
21.0,2,2.4,5.1,0.3,1.4,2.1,3.8,0.7,0.9,0.3,0.8,1.1,1.1,0.5,0.2,0.9,0.9,5.8
20.0,2,7.1,14.7,1.0,3.1,6.1,11.6,1.4,1.9,1.9,5.9,7.9,6.2,0.8,0.4,2.8,1.9,16.6
22.0,3,3.4,6.4,1.1,2.8,2.3,3.6,1.1,1.6,0.9,2.1,3.0,1.7,0.7,0.1,1.2,2.6,9.1
27.0,6,3.6,6.8,0.8,2.2,2.8,4.7,1.7,2.3,1.9,5.9,7.8,3.8,1.2,0.3,1.5,2.6,9.8
27.0,6,3.6,7.1,0.7,2.2,2.9,4.9,1.7,2.3,1.9,6.3,8.2,3.9,1.1,0.2,1.5,2.6,9.5
27.0,6,3.7,6.3,1.1,2.1,2.6,4.2,1.8,2.3,1.9,5.2,7.0,3.6,1.4,0.5,1.5,2.5,10.2
20.0,1,1.2,2.4,0.1,0.4,1.1,2.0,0.5,0.5,0.3,1.3,1.7,0.3,0.3,0.4,0.2,0.7,3.1
24.0,5,2.3,5.8,0.9,2.7,1.3,3.0,1.9,2.7,1.5,2.0,3.5,1.5,0.8,0.5,0.9,1.6,7.3
29.0,8,3.7,8.5,1.6,4.5,2.0,4.0,1.1,1.2,0.6,2.1,2.7,2.7,1.1,0.3,1.3,1.8,10.1
29.0,8,4.2,9.7,1.8,4.9,2.5,4.7,1.3,1.4,0.7,2.1,2.8,3.3,1.0,0.3,1.5,1.7,11.5
29.0,8,2.7,6.4,1.4,3.7,1.3,2.7,0.7,0.9,0.5,2.0,2.4,1.6,1.3,0.4,1.0,2.0,7.5
20.0,2,2.3,6.5,0.8,3.0,1.5,3.5,1.8,2.3,0.5,2.8,3.3,4.5,0.3,0.5,2.8,2.0,7.0
32.0,14,7.3,15.3,2.4,6.1,5.0,9.1,2.3,2.6,1.2,3.9,5.1,7.4,1.2,0.4,2.9,1.7,19.3
29.0,4,1.2,2.8,0.2,0.8,1.1,1.9,0.4,0.5,0.5,1.8,2.4,1.3,0.3,0.2,0.7,1.5,3.0
29.0,4,1.1,2.2,0.1,0.7,1.0,1.5,0.4,0.5,0.5,1.6,2.0,0.8,0.3,0.2,0.6,1.5,2.7
29.0,4,1.4,3.5,0.2,1.0,1.2,2.5,0.4,0.4,0.6,2.2,2.9,1.8,0.3,0.1,0.8,1.5,3.4
27.0,7,1.1,2.7,0.4,1.6,0.7,1.1,0.2,0.4,0.6,2.3,2.9,0.6,0.4,0.1,0.4,1.0,2.9
21.0,1,3.5,7.6,1.9,4.8,1.5,2.8,0.8,1.0,0.6,2.9,3.5,0.6,0.4,0.3,0.6,1.5,9.7
21.0,1,0.0,1.0,0.0,0.5,0.0,0.5,0.0,0.0,0.0,0.0,0.0,0.0,0.5,0.0,0.0,0.0,0.0
21.0,1,3.9,8.5,2.2,5.4,1.7,3.1,0.9,1.1,0.7,3.3,4.0,0.7,0.3,0.3,0.7,1.7,11.0
28.0,9,8.5,18.6,2.8,8.3,5.7,10.3,5.2,6.9,1.8,8.1,10.0,4.1,0.6,0.3,2.8,3.0,25.1
21.0,2,1.0,3.0,0.2,1.0,0.8,2.0,0.0,0.0,0.6,1.0,1.6,0.8,0.2,0.0,0.0,0.4,2.2
21.0,2,1.0,1.0,0.0,0.0,1.0,1.0,0.0,0.0,0.3,1.0,1.3,0.3,0.0,0.0,0.0,0.3,2.0
21.0,2,1.0,6.0,0.5,2.5,0.5,3.5,0.0,0.0,1.0,1.0,2.0,1.5,0.5,0.0,0.0,0.5,2.5
33.0,10,1.7,4.4,1.0,3.1,0.7,1.3,0.1,0.2,0.1,1.1,1.2,0.9,0.4,0.4,0.5,1.5,4.5
33.0,10,1.7,4.5,1.1,3.1,0.6,1.4,0.0,0.0,0.1,0.8,0.8,0.9,0.2,0.4,0.4,1.3,4.5
33.0,10,1.6,4.4,0.9,3.1,0.7,1.3,0.3,0.4,0.2,1.6,1.8,0.9,0.8,0.5,0.6,1.7,4.4
27.0,6,0.3,1.2,0.2,0.9,0.1,0.3,0.0,0.1,0.1,0.7,0.7,0.4,0.2,0.2,0.1,0.3,0.9
23.0,1,1.8,5.8,0.8,3.0,1.0,2.8,0.0,0.3,0.8,3.0,3.8,1.0,0.5,1.3,1.0,2.3,4.3
26.0,8,2.8,6.8,0.5,1.6,2.3,5.3,0.7,1.0,1.7,3.3,5.0,3.4,1.0,0.4,1.5,3.1,6.8
28.0,9,5.0,9.7,0.8,2.3,4.2,7.4,2.4,3.7,2.2,6.9,9.1,2.9,0.8,0.8,2.3,3.6,13.3
23.0,4,0.5,1.1,0.2,0.6,0.3,0.5,0.2,0.2,0.2,0.8,1.0,0.4,0.2,0.2,0.2,1.1,1.3
22.0,2,1.5,2.6,0.1,0.4,1.4,2.2,0.4,0.6,0.8,1.9,2.7,0.3,0.4,0.7,0.7,1.4,3.4
27.0,8,7.3,14.8,2.1,5.7,5.2,9.1,4.1,4.7,1.7,6.5,8.1,4.8,0.7,0.6,3.0,3.8,20.8
31.0,11,8.6,16.8,2.0,4.8,6.6,11.9,4.7,5.4,1.1,5.4,6.5,3.9,1.4,0.5,1.7,1.6,23.8
22.0,1,4.4,9.8,2.6,6.3,1.9,3.5,0.8,1.0,1.1,3.5,4.6,1.2,0.8,0.5,0.8,2.0,12.2
27.0,5,3.5,6.9,0.8,2.1,2.7,4.8,1.8,2.2,1.0,2.7,3.7,1.5,0.7,0.3,0.8,0.9,9.7
23.0,4,8.0,17.7,2.1,6.5,5.9,11.2,3.9,5.2,0.9,4.2,5.0,2.9,0.7,0.2,2.1,2.0,22.0
31.0,10,4.1,8.2,1.4,3.5,2.7,4.7,2.9,3.4,1.2,5.0,6.2,3.7,0.9,0.5,2.5,3.4,12.5
27.0,8,7.4,17.1,2.3,7.1,5.1,10.0,3.3,4.3,1.4,3.8,5.2,1.1,1.4,0.4,1.3,2.9,20.3
32.0,12,2.7,6.3,0.8,3.1,1.9,3.2,1.9,2.3,0.3,1.4,1.8,2.1,0.2,0.2,0.4,1.2,8.0
19.0,1,0.7,1.2,0.0,0.2,0.7,1.0,0.2,0.3,0.3,0.7,1.0,0.5,0.7,0.0,0.3,1.5,1.5
27.0,3,2.7,6.4,1.1,3.2,1.6,3.2,0.5,0.6,0.2,1.3,1.6,1.3,0.4,0.1,0.9,0.9,7.1
27.0,3,2.6,6.4,1.1,3.2,1.6,3.2,0.4,0.5,0.1,1.3,1.4,0.9,0.3,0.1,0.8,0.9,6.7
27.0,3,2.9,6.4,1.2,3.1,1.6,3.3,0.6,0.6,0.3,1.4,1.7,1.8,0.5,0.1,1.1,1.0,7.5
20.0,1,1.0,2.3,0.1,0.4,0.9,1.9,0.2,0.4,0.3,0.8,1.1,1.6,0.3,0.1,0.5,0.4,2.2
20.0,1,2.0,3.9,0.3,0.7,1.8,3.2,0.7,1.1,0.8,1.3,2.1,0.8,0.2,0.1,0.5,1.2,5.0
28.0,5,3.4,6.5,0.9,2.5,2.4,4.0,0.3,0.7,1.8,3.1,4.9,2.0,0.8,0.3,0.6,2.1,8.0
29.0,10,3.8,8.3,1.8,4.2,2.1,4.1,1.4,1.6,0.5,2.3,2.7,2.4,1.5,0.5,1.1,1.9,10.8
22.0,3,5.0,8.8,0.8,2.6,4.2,6.1,1.8,2.7,1.5,4.0,5.5,1.5,0.5,0.4,1.1,1.8,12.7
23.0,1,0.4,1.0,0.4,0.8,0.1,0.3,0.3,0.4,0.3,0.3,0.5,0.4,0.3,0.1,0.1,0.6,1.5
20.0,2,1.7,4.5,0.7,2.0,1.0,2.4,0.7,1.0,0.3,0.8,1.1,1.5,0.5,0.2,1.1,1.1,4.7
22.0,2,1.0,2.6,0.5,1.5,0.5,1.1,0.3,0.4,0.6,1.1,1.7,0.6,0.4,0.2,0.4,1.1,2.8
22.0,2,0.4,1.7,0.1,0.9,0.3,0.9,0.1,0.1,0.4,0.6,1.0,0.1,0.2,0.1,0.3,0.2,1.1
22.0,2,1.4,3.1,0.7,2.0,0.7,1.2,0.5,0.6,0.8,1.4,2.1,1.0,0.5,0.2,0.4,1.7,3.9
34.0,15,10.3,18.3,2.0,4.9,8.3,13.4,6.5,7.1,0.4,6.3,6.7,5.0,0.7,1.4,3.3,2.1,29.1
34.0,15,10.5,18.8,1.8,4.8,8.7,14.0,6.8,7.3,0.4,6.4,6.7,5.3,0.8,1.5,3.5,2.4,29.7
34.0,15,9.1,16.0,2.8,5.1,6.4,10.9,5.0,6.0,0.4,6.0,6.4,3.5,0.3,1.3,2.5,0.9,26.0
24.0,5,5.6,11.5,2.7,6.8,2.9,4.7,1.3,1.7,0.6,2.8,3.3,2.9,1.1,0.3,1.3,2.4,15.2
23.0,5,2.4,5.3,1.0,3.0,1.4,2.3,0.7,1.0,0.5,2.3,2.8,0.5,0.4,0.2,0.8,1.5,6.6
23.0,5,2.0,4.3,1.0,2.8,1.0,1.5,0.6,0.8,0.5,2.1,2.6,0.4,0.3,0.3,0.8,1.8,5.6
23.0,5,3.2,7.3,1.0,3.3,2.2,4.0,1.0,1.3,0.7,2.6,3.3,0.9,0.5,0.0,0.9,1.0,8.5
34.0,15,2.7,6.8,1.6,4.8,1.1,2.1,1.3,1.5,1.0,5.5,6.4,1.9,0.3,0.2,1.1,1.6,8.2
34.0,15,2.7,7.0,1.7,4.8,1.0,2.2,1.4,1.5,1.0,5.8,6.8,1.9,0.2,0.2,1.1,1.6,8.5
34.0,15,2.6,6.6,1.4,4.8,1.1,1.8,1.1,1.3,0.8,4.9,5.7,1.9,0.4,0.2,1.1,1.5,7.7
22.0,4,6.6,15.0,2.4,6.5,4.2,8.5,3.5,4.5,1.3,4.0,5.3,5.7,1.4,0.3,3.2,2.6,19.2
25.0,1,1.4,3.1,0.5,1.3,0.9,1.9,0.9,1.2,0.8,1.2,2.1,0.5,0.5,0.1,0.6,1.6,4.1
26.0,8,3.0,4.7,0.0,0.0,3.0,4.7,1.1,1.9,3.3,5.9,9.3,2.5,0.6,0.6,0.5,2.7,7.0
30.0,6,1.0,1.6,0.1,0.1,0.9,1.5,0.2,0.3,0.4,0.9,1.3,0.4,0.3,0.3,0.4,1.2,2.2
31.0,11,5.4,12.3,1.5,4.9,3.8,7.4,2.8,3.1,0.8,3.4,4.2,4.9,0.7,0.2,2.2,2.1,15.1
21.0,3,4.0,10.7,1.1,3.8,3.0,7.0,1.2,1.5,0.4,2.5,2.9,6.2,1.4,0.4,2.3,2.9,10.3
21.0,3,1.6,3.5,0.6,1.4,1.0,2.2,0.8,0.9,0.2,1.1,1.3,0.9,0.4,0.1,0.4,1.0,4.6
32.0,10,7.9,18.1,4.4,10.6,3.6,7.6,1.7,1.9,0.6,3.6,4.1,2.4,0.7,0.4,1.8,1.9,21.9
25.0,3,0.2,1.2,0.2,1.0,0.0,0.2,0.4,0.4,0.2,0.6,0.8,1.0,0.0,0.4,0.2,0.0,1.0
28.0,7,5.3,9.8,0.8,1.6,4.5,8.2,1.9,2.4,0.4,4.1,4.5,5.6,1.1,0.5,1.6,2.6,13.2
27.0,7,7.8,15.7,2.1,5.5,5.7,10.2,5.4,6.4,1.8,6.6,8.4,2.7,0.9,1.5,2.1,3.0,23.2
29.0,9,3.7,7.2,0.6,1.5,3.0,5.7,1.4,2.0,1.0,4.4,5.3,4.9,1.1,0.9,1.5,2.1,9.4
27.0,6,8.0,17.8,2.5,7.5,5.5,10.3,2.7,3.7,0.9,6.4,7.2,3.7,0.6,0.5,3.0,2.3,21.2
36.0,17,3.6,8.8,1.9,5.6,1.6,3.2,2.1,2.5,0.8,3.3,4.1,5.1,1.0,0.4,1.9,2.6,11.2
30.0,12,9.9,20.1,3.1,8.3,6.8,11.8,4.1,4.6,1.0,4.1,5.1,5.5,1.1,0.8,2.1,2.8,27.1
30.0,12,10.0,20.5,3.3,8.7,6.7,11.8,4.0,4.5,1.0,4.2,5.1,5.3,1.0,0.8,2.3,2.7,27.1
30.0,12,9.8,19.2,2.9,7.4,6.9,11.8,4.5,4.7,1.1,4.0,5.0,6.0,1.3,0.6,1.9,2.8,27.0
21.0,3,8.2,20.0,4.0,10.6,4.2,9.4,2.8,3.4,1.2,5.3,6.4,8.4,1.3,0.3,3.6,3.3,23.3
25.0,3,2.1,4.6,0.5,1.5,1.6,3.1,0.6,0.9,0.8,2.6,3.3,0.5,0.4,0.3,0.4,1.3,5.3
25.0,5,2.8,7.5,1.9,5.0,1.0,2.5,1.1,1.3,0.3,1.4,1.7,2.3,0.7,0.1,0.9,1.5,8.7
30.0,8,2.9,4.7,0.2,0.6,2.6,4.0,0.8,1.2,1.6,3.8,5.4,1.8,0.9,0.6,0.6,2.0,6.8
25.0,6,8.7,17.3,3.0,7.7,5.6,9.6,5.3,6.0,2.0,6.7,8.6,1.9,0.6,0.6,1.9,2.1,25.6
38.0,20,11.1,22.2,2.2,6.9,8.9,15.3,4.6,5.9,1.2,7.1,8.3,6.8,0.9,0.6,3.2,1.6,28.9
22.0,2,0.2,1.4,0.0,0.3,0.2,1.1,0.0,0.0,0.3,0.2,0.5,0.5,0.2,0.1,0.5,0.7,0.4
22.0,1,0.5,1.3,0.5,1.0,0.0,0.3,1.0,1.5,0.3,0.5,0.8,0.5,0.3,0.0,1.3,0.0,2.5
24.0,2,2.6,5.3,0.9,2.6,1.7,2.7,1.1,1.3,0.0,1.0,1.0,2.0,0.0,0.3,1.7,1.0,7.1
25.0,2,1.7,4.3,1.4,4.0,0.3,0.4,0.4,0.5,0.4,1.4,1.8,0.7,0.3,0.3,0.2,1.0,5.2
24.0,5,4.2,9.4,1.6,4.4,2.6,5.0,1.6,1.9,0.3,1.7,1.9,1.1,0.5,0.3,0.8,1.3,11.7
23.0,4,8.0,13.0,4.0,8.0,4.0,5.0,0.0,1.0,2.0,2.0,4.0,2.0,1.0,0.0,2.0,4.0,20.0
23.0,4,4.6,11.8,1.8,5.5,2.8,6.3,2.7,3.5,1.7,2.9,4.6,2.1,1.0,0.3,1.2,3.3,13.7
23.0,5,10.9,22.0,2.8,8.2,8.1,13.8,7.8,10.5,0.8,7.8,8.6,8.0,1.4,0.5,3.6,2.5,32.4
24.0,2,2.3,4.1,0.5,1.4,1.8,2.8,1.5,1.9,1.2,1.1,2.3,0.6,0.1,0.1,0.5,1.5,6.5
23.0,3,3.7,8.1,1.1,4.4,2.6,3.7,1.3,1.9,0.0,4.3,4.3,2.1,0.9,0.3,1.4,2.4,9.9
26.0,6,3.2,6.5,2.3,4.6,0.9,1.9,0.6,0.7,0.3,2.4,2.7,1.5,0.5,0.1,0.8,1.4,9.3
26.0,6,2.8,6.0,1.7,3.8,1.1,2.3,0.5,0.6,0.2,2.2,2.4,1.1,0.5,0.1,0.9,1.3,7.8
26.0,6,3.8,7.1,3.1,5.7,0.7,1.4,0.8,0.8,0.4,2.8,3.1,2.3,0.5,0.0,0.7,1.5,11.3
27.0,6,1.6,2.5,0.0,0.2,1.6,2.3,0.5,0.6,1.2,1.6,2.9,0.8,0.2,0.7,0.4,1.2,3.8
24.0,2,4.5,10.0,2.0,5.5,2.5,4.5,1.5,2.5,1.5,3.5,5.0,4.5,0.0,0.0,1.5,1.5,12.5
24.0,3,1.6,4.6,0.9,2.5,0.8,2.1,0.5,0.6,0.3,1.2,1.4,1.3,0.4,0.1,0.5,1.2,4.6
19.0,1,4.1,9.3,1.2,3.9,2.9,5.4,0.9,1.1,0.4,2.3,2.7,1.9,0.5,0.1,1.2,1.7,10.2
30.0,7,5.3,10.9,2.0,4.4,3.3,6.5,2.4,2.7,0.6,3.6,4.2,3.7,0.7,0.3,1.5,1.6,14.9
27.0,2,0.4,0.8,0.2,0.6,0.2,0.2,0.0,0.0,0.0,0.6,0.6,0.0,0.0,0.0,0.0,0.2,1.0
26.0,7,4.6,11.6,2.9,8.1,1.7,3.4,0.6,0.8,0.4,3.1,3.5,1.5,0.8,0.1,1.1,1.3,12.7
26.0,7,4.8,12.2,3.1,8.6,1.7,3.6,0.7,0.8,0.5,3.1,3.6,1.7,0.8,0.1,1.1,1.4,13.4
26.0,7,4.0,10.3,2.5,7.2,1.5,3.1,0.5,0.8,0.3,3.0,3.3,1.2,0.8,0.0,1.2,1.2,11.1
24.0,6,4.6,10.3,1.9,5.2,2.8,5.2,2.4,2.7,0.4,2.2,2.6,3.9,0.6,0.3,1.9,1.6,13.5
26.0,3,1.1,2.3,0.3,1.0,0.8,1.3,0.1,0.1,0.4,1.0,1.4,0.4,0.2,0.4,0.5,1.2,2.6
22.0,1,1.8,4.7,0.9,2.7,0.9,1.9,0.5,0.7,0.7,1.5,2.2,0.7,0.4,0.1,0.9,1.4,5.1
33.0,12,4.2,9.9,1.7,4.7,2.5,5.2,1.0,1.3,0.4,3.5,4.0,1.8,0.6,0.3,0.9,2.1,11.2
28.0,9,4.1,9.9,1.9,5.6,2.2,4.3,1.4,1.9,0.8,2.4,3.1,6.3,1.5,0.4,2.3,2.8,11.5
21.0,1,3.7,5.8,0.0,0.0,3.7,5.8,1.6,2.3,2.2,4.9,7.1,0.4,0.7,1.0,0.9,2.2,9.0
24.0,6,5.8,11.3,0.5,1.5,5.4,9.9,1.9,2.4,1.2,2.8,3.9,5.7,1.5,0.4,2.3,2.2,14.0
33.0,12,1.3,3.3,0.8,2.0,0.5,1.3,0.3,0.3,0.4,1.7,2.0,0.9,0.3,0.1,0.5,1.4,3.8
33.0,12,1.2,3.0,0.7,1.8,0.5,1.2,0.4,0.4,0.5,1.7,2.2,0.9,0.3,0.2,0.5,1.2,3.6
33.0,12,1.8,4.1,1.0,2.8,0.8,1.4,0.0,0.0,0.0,1.5,1.5,0.8,0.1,0.0,0.5,1.9,4.5
23.0,2,0.3,1.0,0.1,0.6,0.1,0.4,0.1,0.3,0.1,0.1,0.3,0.0,0.0,0.0,0.0,0.7,0.9
23.0,5,4.8,9.1,0.5,1.6,4.4,7.5,1.9,2.6,2.2,4.2,6.4,0.9,0.5,0.7,1.1,1.9,12.0
32.0,10,4.2,6.1,0.0,0.0,4.2,6.1,2.5,4.0,2.9,6.0,8.9,3.1,0.6,0.6,1.5,2.7,10.8
32.0,10,4.7,7.1,0.0,0.0,4.7,7.1,2.8,4.6,3.3,6.3,9.7,3.7,0.6,0.6,1.6,2.9,12.2
32.0,10,2.8,3.8,0.0,0.0,2.8,3.8,1.9,2.5,1.8,5.1,6.9,1.7,0.5,0.5,1.3,2.4,7.5
25.0,4,1.5,3.6,0.8,2.1,0.8,1.5,0.3,0.4,0.6,1.4,2.0,0.7,1.2,0.5,0.3,1.6,4.1
25.0,4,1.0,2.4,0.4,1.3,0.6,1.1,0.2,0.2,0.4,0.9,1.3,0.5,0.9,0.3,0.2,1.3,2.7
25.0,4,2.7,6.2,1.5,3.9,1.2,2.4,0.5,0.7,0.9,2.6,3.5,1.4,1.7,0.8,0.7,2.2,7.4
25.0,2,1.2,3.2,0.9,2.5,0.2,0.7,0.3,0.4,0.1,0.6,0.8,0.5,0.1,0.0,0.2,0.8,3.6
25.0,2,1.3,4.1,1.1,2.9,0.2,1.2,0.3,0.4,0.2,1.0,1.2,0.3,0.2,0.0,0.3,1.2,3.9
25.0,2,1.1,2.7,0.9,2.2,0.3,0.5,0.3,0.3,0.1,0.5,0.5,0.5,0.1,0.0,0.2,0.6,3.4
32.0,9,0.5,1.6,0.3,0.8,0.3,0.7,0.1,0.2,0.0,0.4,0.4,1.3,0.2,0.0,0.3,0.6,1.5
19.0,1,1.1,2.6,0.6,1.5,0.4,1.1,0.3,0.4,0.2,1.7,1.8,0.5,0.2,0.2,0.3,0.8,3.1
26.0,4,4.1,9.9,2.5,7.0,1.6,2.8,1.0,1.1,0.6,2.6,3.2,2.1,0.5,0.2,0.9,2.1,11.5
31.0,6,2.1,4.6,1.1,3.0,1.0,1.5,0.7,1.0,0.8,2.8,3.6,1.4,0.3,0.8,0.7,2.3,5.9
24.0,2,1.7,3.6,0.3,1.0,1.4,2.6,0.5,0.7,0.3,1.4,1.7,2.1,0.3,0.2,0.7,0.9,4.2
30.0,10,1.6,3.2,0.8,2.0,0.8,1.2,0.9,1.0,1.3,2.4,3.8,0.1,0.2,0.0,0.7,1.8,4.8
25.0,3,0.5,1.8,0.0,0.8,0.5,1.0,0.5,0.5,1.3,1.3,2.5,0.0,0.5,0.0,0.3,0.8,1.5
24.0,2,1.4,2.1,0.6,1.0,0.9,1.1,0.0,0.0,0.4,1.9,2.3,0.6,0.1,0.0,0.3,0.7,3.4
31.0,9,1.5,3.5,0.3,0.8,1.3,2.8,1.0,1.8,0.3,1.0,1.3,1.8,0.3,0.3,1.0,1.3,4.3
20.0,1,0.0,0.0,0.0,0.0,0.0,0.0,0.0,0.0,0.0,0.0,0.0,0.0,0.0,0.0,0.0,0.0,0.0
24.0,4,6.4,13.2,3.0,7.3,3.4,5.9,1.5,1.9,1.0,4.5,5.5,1.0,0.6,0.5,1.1,1.9,17.4
26.0,5,7.1,15.3,2.0,5.3,5.1,9.9,3.8,4.3,1.0,3.4,4.4,3.3,1.1,0.7,1.5,1.9,20.1
26.0,5,6.3,13.6,1.8,4.7,4.5,9.0,2.8,3.1,1.0,3.3,4.3,3.6,1.2,0.8,1.4,2.1,17.2
26.0,5,8.9,18.6,2.5,6.7,6.3,11.9,5.9,6.6,0.9,3.6,4.5,2.7,1.0,0.6,1.8,1.6,26.1
35.0,16,3.9,9.1,2.0,5.2,1.9,3.9,2.1,2.5,0.5,2.2,2.7,6.7,1.1,0.2,1.5,2.1,11.9
35.0,16,3.6,8.7,1.8,5.0,1.8,3.8,1.8,2.2,0.4,2.1,2.5,7.7,1.0,0.2,1.7,2.2,10.7
35.0,16,4.5,9.8,2.4,5.8,2.1,4.0,2.6,3.0,0.7,2.5,3.1,5.0,1.2,0.2,1.2,1.9,14.0
31.0,10,2.1,4.6,1.3,3.3,0.8,1.3,0.6,0.8,0.6,2.6,3.2,0.8,0.2,0.4,0.4,1.6,6.1
31.0,10,2.1,4.7,1.3,3.3,0.8,1.4,0.7,0.9,0.5,2.6,3.1,0.9,0.3,0.4,0.3,1.6,6.2
31.0,10,2.1,4.5,1.3,3.3,0.9,1.2,0.5,0.7,0.7,2.7,3.4,0.6,0.2,0.3,0.5,1.4,5.9
22.0,2,1.2,3.4,0.6,2.1,0.6,1.3,0.4,0.7,0.2,0.6,0.8,1.1,0.6,0.1,0.4,0.9,3.5
24.0,5,3.2,4.7,0.0,0.0,3.2,4.7,1.0,2.1,4.5,4.9,9.4,0.9,0.9,1.8,0.7,2.7,7.4
24.0,5,2.4,4.9,1.0,2.5,1.4,2.4,0.8,1.3,1.2,3.4,4.6,0.9,0.3,0.9,0.6,2.1,6.6
24.0,5,2.7,5.4,1.1,2.7,1.6,2.7,0.9,1.3,1.2,3.4,4.6,1.1,0.3,1.0,0.6,2.2,7.3
24.0,5,1.2,3.0,0.6,1.8,0.7,1.2,0.7,1.2,1.2,3.3,4.6,0.4,0.1,0.6,0.9,2.1,3.7
27.0,6,4.0,8.3,1.3,3.3,2.7,5.0,1.0,1.2,0.4,3.0,3.4,5.3,0.7,0.2,1.0,1.2,10.3
29.0,8,2.2,3.7,0.0,0.1,2.2,3.6,1.2,1.8,1.2,1.6,2.8,0.6,0.3,0.4,0.6,1.3,5.6
25.0,5,3.5,6.9,0.9,2.9,2.6,4.1,2.7,3.2,1.2,3.3,4.5,1.5,0.6,0.2,1.2,2.4,10.5
23.0,4,1.7,2.7,0.0,0.0,1.7,2.7,0.9,2.0,1.6,2.3,3.9,0.1,0.1,0.4,0.4,1.1,4.3
23.0,4,1.8,2.8,0.0,0.0,1.8,2.8,1.0,2.1,1.7,2.4,4.1,0.1,0.1,0.4,0.4,1.1,4.6
23.0,4,0.0,0.0,0.0,0.0,0.0,0.0,0.0,0.0,0.0,0.0,0.0,0.0,0.5,0.0,0.5,0.5,0.0
20.0,2,1.7,3.6,0.8,2.1,0.9,1.5,0.6,0.8,0.4,1.2,1.7,0.8,0.3,0.1,0.5,0.9,4.8
21.0,1,1.1,2.1,0.0,0.1,1.0,2.0,0.5,0.7,1.4,0.9,2.3,0.2,0.3,0.4,0.4,0.7,2.7
26.0,8,6.5,11.8,1.5,4.0,5.0,7.8,3.5,4.5,1.4,6.1,7.5,1.4,0.6,2.3,1.7,3.5,18.0
25.0,3,3.2,7.4,0.9,2.8,2.4,4.6,1.8,2.3,0.6,3.0,3.6,2.5,0.7,0.2,1.3,1.5,9.1
22.0,4,2.5,5.6,1.1,2.9,1.4,2.7,0.6,0.9,0.5,2.1,2.6,0.9,0.4,0.4,0.7,1.2,6.6
25.0,3,1.2,2.1,0.2,0.6,1.0,1.6,1.0,1.5,0.6,0.9,1.5,0.3,0.3,0.2,0.6,1.1,3.7
23.0,4,4.6,8.5,1.1,3.2,3.5,5.3,1.3,1.9,1.1,3.8,4.9,1.1,0.6,0.8,1.4,2.6,11.5
23.0,2,1.2,1.8,0.0,0.0,1.2,1.8,0.0,0.4,1.0,1.2,2.2,0.2,0.0,0.4,0.2,1.4,2.4
28.0,9,0.8,2.1,0.1,0.1,0.7,2.0,0.5,0.7,0.6,2.1,2.7,0.6,0.9,0.6,0.8,1.9,2.1
28.0,9,0.9,2.1,0.1,0.1,0.8,2.0,0.5,0.7,0.5,2.1,2.6,0.5,0.9,0.6,0.6,1.8,2.3
28.0,9,0.3,2.0,0.0,0.0,0.3,2.0,0.3,0.7,1.0,2.0,3.0,1.0,1.0,0.3,1.7,2.3,1.0
23.0,4,5.4,7.7,0.0,0.0,5.4,7.7,1.8,3.2,2.4,6.8,9.2,1.9,0.9,2.5,1.3,2.8,12.6
25.0,3,3.0,4.8,0.0,0.0,3.0,4.8,2.1,2.8,2.3,4.1,6.4,0.6,0.2,1.1,0.9,2.4,8.2
24.0,4,2.2,5.0,1.0,2.7,1.2,2.3,0.7,1.0,0.3,1.5,1.7,1.8,0.5,0.4,0.9,1.5,6.2
24.0,4,2.3,4.7,1.0,2.4,1.3,2.3,0.8,1.1,0.2,1.4,1.6,2.1,0.7,0.4,1.3,1.6,6.3
24.0,4,2.1,5.4,1.1,3.1,1.0,2.3,0.6,0.9,0.3,1.5,1.8,1.4,0.3,0.3,0.4,1.3,5.9
34.0,15,2.1,4.9,1.6,4.1,0.5,0.8,0.4,0.6,0.8,3.0,3.8,1.6,0.7,0.6,0.6,1.9,6.1
27.0,8,9.4,14.8,0.8,2.2,8.5,12.7,4.9,6.0,2.4,9.4,11.8,9.8,1.3,0.7,3.6,2.5,24.5
19.0,1,1.9,4.6,0.5,2.3,1.3,2.3,1.2,1.3,0.6,1.5,2.1,0.7,0.5,0.1,0.7,1.3,5.5
32.0,12,7.3,14.0,1.5,4.2,5.8,9.8,1.6,1.9,1.9,9.1,11.0,3.2,0.7,0.7,1.7,2.2,17.6
27.0,8,0.5,1.0,0.0,0.2,0.4,0.9,0.1,0.1,0.8,1.3,2.1,0.3,0.1,0.3,0.5,1.5,1.1
29.0,8,5.7,11.8,1.9,4.8,3.8,7.1,3.8,4.6,0.4,2.5,2.9,1.8,0.8,0.3,1.7,2.1,17.0
25.0,6,6.3,13.2,2.1,5.5,4.2,7.7,2.1,2.5,1.4,3.5,5.0,2.0,1.9,0.7,2.0,3.0,16.8
24.0,3,2.8,6.3,1.3,3.7,1.5,2.6,0.6,0.7,0.4,2.4,2.8,1.0,0.3,0.2,0.6,1.0,7.4
22.0,1,2.8,6.5,1.4,3.9,1.4,2.7,0.9,1.2,0.7,1.3,2.1,1.1,0.3,0.3,0.7,1.7,7.9
23.0,2,1.7,3.3,0.1,0.9,1.6,2.4,0.6,0.8,1.3,2.1,3.4,0.4,0.1,0.6,0.4,1.9,4.0
24.0,2,1.8,3.0,0.3,0.8,1.4,2.2,0.6,0.7,0.9,1.7,2.6,0.2,0.2,0.2,0.4,1.8,4.4
22.0,3,4.0,6.2,0.1,0.2,3.9,6.1,1.9,2.5,2.7,4.5,7.2,1.0,0.7,1.3,1.0,3.1,9.9
22.0,1,1.5,2.9,0.0,0.2,1.5,2.7,0.7,1.0,1.5,2.5,4.1,0.8,0.4,0.4,0.5,1.7,3.7
24.0,4,1.9,4.9,0.7,2.4,1.2,2.5,1.6,2.2,1.0,2.4,3.4,0.7,0.5,0.2,0.5,1.2,6.1
29.0,10,1.9,3.8,0.8,2.1,1.1,1.6,1.0,1.0,0.8,1.6,2.4,1.0,1.4,0.0,0.5,0.9,5.5
19.0,1,1.9,4.6,0.7,2.5,1.3,2.1,0.4,0.6,0.5,2.2,2.7,1.2,0.4,0.2,0.7,1.1,4.9
37.0,12,1.3,3.0,0.7,1.9,0.5,1.1,0.3,0.3,1.3,2.7,3.9,0.8,0.5,0.2,0.6,2.4,3.5
24.0,4,5.9,13.4,2.0,5.9,3.9,7.5,1.7,2.4,1.0,3.9,4.9,2.4,0.9,1.1,1.5,2.6,15.7
26.0,6,0.6,2.1,0.1,1.0,0.5,1.1,0.0,0.0,0.1,0.8,0.9,0.6,0.4,0.1,0.3,0.4,1.4
20.0,1,6.7,15.6,1.2,4.0,5.5,11.6,5.5,7.4,1.2,5.7,6.9,3.7,0.8,0.5,2.8,2.2,20.0
28.0,7,8.9,18.5,1.3,4.0,7.6,14.5,5.2,6.7,1.8,6.0,7.8,5.8,0.9,0.5,2.4,3.2,24.2
30.0,8,2.7,6.9,1.8,5.3,0.9,1.6,0.4,0.7,0.8,3.8,4.6,1.3,0.6,0.2,0.5,1.1,7.6
20.0,1,1.4,3.5,1.0,2.7,0.4,0.8,0.1,0.2,0.0,1.3,1.3,0.4,0.2,0.1,0.4,0.5,3.9
34.0,11,2.1,5.4,1.2,3.6,1.0,1.8,0.7,1.0,0.7,3.0,3.7,2.9,0.9,0.6,0.9,2.8,6.2
34.0,11,2.2,5.4,1.2,3.5,0.9,1.8,0.9,1.1,0.5,2.6,3.1,2.6,0.9,0.6,0.9,2.8,6.4
34.0,11,2.1,5.4,1.1,3.7,1.0,1.7,0.4,0.7,0.9,4.0,4.9,3.5,1.0,0.7,0.8,2.9,5.8
21.0,3,3.8,8.3,1.4,3.4,2.4,4.9,1.1,1.3,1.0,3.0,4.0,1.2,0.9,0.9,1.2,1.8,10.2
34.0,14,2.2,5.2,1.2,3.4,0.9,1.9,0.6,0.8,0.2,0.9,1.1,1.4,0.4,0.1,0.8,0.8,6.2
32.0,13,8.2,17.9,2.8,7.6,5.4,10.3,4.6,5.3,0.8,5.3,6.1,5.1,1.5,0.4,3.1,2.8,23.8
23.0,3,1.8,3.0,0.0,0.1,1.8,2.9,0.6,0.7,1.6,2.2,3.8,0.4,0.7,0.7,0.7,1.8,4.2
25.0,3,2.1,5.1,1.2,3.2,0.9,1.9,0.3,0.3,0.5,1.3,1.8,1.3,0.3,0.0,0.8,0.8,5.6
20.0,1,1.3,2.6,0.3,0.6,1.0,2.0,0.5,0.9,0.3,1.3,1.6,0.5,0.1,0.5,0.3,0.6,3.3
23.0,3,3.6,7.3,0.5,2.0,3.0,5.4,1.6,2.3,1.8,4.1,6.0,0.9,0.6,0.5,1.1,1.9,9.2
22.0,2,4.0,8.5,2.2,5.7,1.8,2.7,1.1,1.4,0.7,2.5,3.2,2.1,0.7,0.4,1.0,2.5,11.3
24.0,1,2.1,4.7,0.1,1.3,2.0,3.3,1.9,2.4,0.2,0.7,0.9,1.7,0.4,0.1,0.4,1.1,6.2
21.0,3,2.2,5.0,0.9,2.5,1.3,2.6,1.2,1.6,0.4,1.5,1.9,1.1,0.6,0.2,0.9,1.1,6.4
21.0,3,1.9,4.4,0.7,2.0,1.2,2.3,1.2,1.4,0.3,1.2,1.5,1.3,0.6,0.2,0.8,0.8,5.7
21.0,3,2.5,5.9,1.1,3.0,1.4,2.9,1.2,1.9,0.4,1.9,2.3,1.0,0.5,0.2,1.0,1.4,7.3
22.0,4,7.0,16.1,1.7,5.3,5.3,10.8,4.0,5.4,0.8,4.2,5.0,2.8,0.4,0.2,2.2,2.5,19.6
23.0,1,6.0,12.0,2.0,5.0,4.0,7.0,2.0,2.0,3.0,6.0,9.0,7.0,0.0,1.0,4.0,5.0,16.0
30.0,8,1.2,2.3,0.3,0.9,0.9,1.4,0.6,0.7,0.2,0.8,1.0,1.6,0.4,0.1,0.5,1.0,3.3
31.0,10,2.5,6.0,1.9,5.1,0.5,0.9,0.3,0.5,0.4,3.2,3.6,1.4,0.7,0.2,0.5,2.1,7.2
32.0,12,3.9,9.4,1.4,4.2,2.5,5.2,1.0,1.1,0.4,1.8,2.1,3.4,0.7,0.1,1.7,1.7,10.2
32.0,12,4.1,9.8,1.5,4.2,2.6,5.6,1.2,1.3,0.4,1.8,2.2,3.5,0.7,0.1,1.8,1.8,10.9
32.0,12,3.1,8.0,1.2,4.3,1.9,3.8,0.6,0.8,0.2,1.6,1.8,3.1,0.6,0.1,1.2,1.4,7.9
29.0,8,1.3,2.1,0.1,0.2,1.2,1.9,0.4,0.5,0.7,1.2,1.9,0.2,0.1,0.3,0.3,1.2,3.1
32.0,12,1.8,5.4,0.6,2.5,1.2,2.9,0.8,1.1,0.3,1.8,2.1,3.5,0.8,0.2,0.9,1.5,5.2
32.0,10,2.1,4.8,1.1,2.8,1.0,1.9,0.6,0.8,0.6,2.8,3.5,1.2,0.8,0.7,0.7,1.8,6.0
25.0,5,3.6,4.9,0.0,0.0,3.6,4.8,0.7,1.2,3.0,5.4,8.3,1.4,0.6,1.4,1.0,1.9,8.0
34.0,15,1.3,2.0,0.1,0.1,1.2,1.9,0.4,0.5,0.6,0.8,1.4,0.5,0.1,0.2,0.7,1.2,3.0
31.0,7,1.9,4.8,1.3,3.0,0.7,1.7,0.6,0.7,0.6,1.7,2.3,0.9,0.5,0.0,0.3,1.2,5.7
23.0,4,2.8,6.0,0.4,1.4,2.4,4.6,0.9,1.3,1.3,1.3,2.7,1.2,0.6,0.3,0.7,1.6,6.9
22.0,1,0.9,1.8,0.3,1.0,0.6,0.8,0.1,0.1,0.3,0.4,0.8,0.4,0.0,0.1,0.0,0.3,2.2
29.0,6,3.0,7.8,2.1,5.5,0.9,2.3,0.7,0.9,0.7,4.3,5.1,3.7,0.9,0.6,1.5,3.1,8.8
36.0,17,1.9,5.1,0.6,2.3,1.4,2.8,0.8,0.9,0.6,2.3,2.9,1.0,0.3,0.3,0.7,1.2,5.2
30.0,10,5.1,7.8,0.0,0.0,5.1,7.8,3.1,4.9,3.3,8.3,11.6,1.2,0.8,1.4,1.7,3.0,13.4
24.0,4,4.5,9.3,0.8,2.5,3.7,6.7,1.4,1.9,0.8,3.7,4.5,0.9,0.3,0.4,0.8,1.1,11.2
24.0,4,5.3,10.8,1.0,3.0,4.3,7.8,1.5,1.9,0.6,3.6,4.3,1.2,0.4,0.4,1.2,1.3,13.0
24.0,4,3.8,7.9,0.6,2.2,3.2,5.7,1.3,1.8,1.0,3.7,4.7,0.7,0.2,0.4,0.5,1.0,9.6
34.0,15,5.9,13.6,1.2,3.9,4.7,9.7,2.8,4.3,1.2,4.6,5.8,7.5,1.0,0.5,3.5,2.2,15.9
34.0,15,5.8,14.0,1.2,4.1,4.6,9.9,3.0,4.6,1.1,5.0,6.2,7.5,1.0,0.4,3.5,2.3,15.9
34.0,15,6.1,12.5,1.2,3.5,4.9,9.0,2.4,3.6,1.4,3.4,4.9,7.6,1.1,0.5,3.4,2.0,15.8
28.0,6,0.5,1.9,0.4,1.2,0.1,0.7,0.0,0.0,0.0,0.8,0.8,1.2,0.3,0.0,0.4,0.9,1.3
28.0,6,0.1,0.5,0.1,0.3,0.0,0.2,0.0,0.0,0.0,0.4,0.4,0.2,0.2,0.0,0.1,0.3,0.3
28.0,6,0.9,3.6,0.8,2.2,0.1,1.3,0.0,0.0,0.0,1.2,1.2,2.3,0.3,0.0,0.7,1.6,2.6
20.0,1,0.6,1.7,0.3,0.8,0.3,0.9,0.5,0.5,0.3,0.8,1.0,0.5,0.1,0.1,1.3,0.8,1.9
23.0,3,2.0,4.8,0.4,1.2,1.5,3.6,1.7,2.3,0.5,1.3,1.8,2.7,0.8,0.0,1.0,1.3,6.0
23.0,3,1.5,2.0,0.0,0.5,1.5,1.5,0.0,0.0,0.0,0.0,0.0,1.0,0.5,0.0,1.5,0.5,3.0
23.0,3,2.0,5.1,0.5,1.3,1.5,3.8,1.8,2.5,0.6,1.4,2.0,2.8,0.8,0.0,0.9,1.3,6.3
23.0,3,4.6,10.9,2.0,5.4,2.6,5.4,2.7,3.1,1.3,3.4,4.7,1.5,0.9,0.2,0.9,1.6,13.8
23.0,3,4.7,11.7,1.9,5.6,2.8,6.0,3.5,4.0,1.1,3.5,4.7,1.6,1.0,0.2,1.0,1.7,14.8
23.0,3,4.3,9.2,2.0,5.0,2.3,4.2,1.0,1.2,1.6,3.2,4.8,1.4,0.8,0.0,0.7,1.5,11.6
25.0,2,2.3,5.0,1.8,4.2,0.5,0.8,0.2,0.2,0.4,2.1,2.6,0.9,0.4,0.3,0.4,1.2,6.4
26.0,3,1.8,4.4,1.0,3.6,0.8,0.8,0.4,0.4,0.0,1.8,1.8,1.0,0.8,0.0,0.0,0.6,5.0
23.0,2,2.3,5.3,0.7,2.3,1.6,3.0,0.9,1.3,1.6,2.7,4.3,1.4,0.3,0.3,0.8,1.2,6.1
23.0,2,0.8,2.4,0.3,1.3,0.5,1.1,0.5,0.8,0.8,1.6,2.3,0.7,0.2,0.2,0.4,0.8,2.4
23.0,2,4.1,9.1,1.2,3.5,2.9,5.5,1.4,2.1,2.7,4.1,6.8,2.4,0.5,0.4,1.4,1.7,10.8
22.0,2,3.2,6.8,1.2,3.5,2.0,3.4,1.4,1.9,1.1,3.7,4.8,1.3,0.6,0.6,0.8,1.9,9.0
21.0,2,6.0,13.2,0.8,2.9,5.2,10.3,2.5,3.2,2.3,4.3,6.6,4.8,1.1,0.8,2.0,2.2,15.3
22.0,1,0.7,2.0,0.2,0.5,0.5,1.5,0.8,1.5,0.3,0.3,0.7,0.3,0.3,0.2,0.3,0.5,2.3
33.0,14,1.6,3.4,0.4,1.1,1.3,2.3,0.5,0.8,0.9,1.8,2.8,0.3,0.1,0.4,0.7,1.4,4.1
32.0,9,3.4,7.4,1.5,3.8,1.9,3.6,0.8,0.9,0.2,1.4,1.6,1.6,0.6,0.1,0.8,1.6,9.2
19.0,1,3.8,8.1,1.3,3.5,2.6,4.6,0.9,1.3,0.8,2.2,3.0,1.2,0.5,0.3,1.0,1.7,9.9
24.0,5,10.4,20.3,0.9,2.5,9.5,17.8,9.8,10.9,0.9,4.0,4.8,5.5,1.6,1.0,2.8,2.8,31.4
26.0,5,3.2,6.6,0.7,1.9,2.4,4.7,1.3,1.5,0.5,2.0,2.5,3.2,0.3,0.2,1.2,1.6,8.4
29.0,6,3.0,7.2,0.6,2.0,2.4,5.2,2.2,3.0,0.2,4.2,4.4,6.0,2.2,0.4,1.2,2.4,8.8
27.0,1,2.2,6.0,1.2,3.7,1.0,2.3,0.7,0.8,0.6,1.1,1.7,0.8,0.3,0.2,0.8,1.2,6.3
25.0,3,5.7,11.3,2.0,4.3,3.7,7.0,2.0,2.2,0.3,2.8,3.2,8.3,1.0,0.2,1.7,1.8,15.3
29.0,9,5.8,13.3,2.3,6.2,3.5,7.1,3.4,4.2,0.4,3.1,3.4,6.5,0.8,0.3,1.8,2.4,17.3
29.0,9,6.0,13.1,2.6,6.4,3.4,6.7,3.2,3.9,0.4,2.7,3.1,5.3,0.7,0.3,1.7,2.3,17.7
29.0,9,5.5,13.7,1.7,5.7,3.9,8.0,3.8,4.7,0.3,3.8,4.1,9.1,1.1,0.3,2.1,2.4,16.5
26.0,8,2.2,4.1,0.6,1.3,1.6,2.7,0.9,1.3,0.7,2.4,3.2,2.2,0.5,0.2,1.1,1.6,5.8
23.0,1,0.0,1.0,0.0,1.0,0.0,0.0,2.0,2.0,0.0,0.0,0.0,0.0,1.0,1.0,0.0,0.0,2.0
34.0,14,10.0,20.2,4.9,11.4,5.1,8.8,4.6,5.0,0.7,5.4,6.1,6.3,0.9,0.4,3.2,2.1,29.4
27.0,6,0.0,1.0,0.0,0.5,0.0,0.5,0.0,0.0,0.8,1.3,2.0,0.5,0.8,0.0,0.0,1.0,0.0
29.0,10,3.7,6.3,0.0,0.0,3.7,6.2,1.1,3.1,5.1,6.5,11.5,2.3,0.9,1.1,1.9,2.3,8.6
25.0,5,2.4,5.4,1.3,3.1,1.1,2.3,0.8,1.2,0.5,1.2,1.7,1.7,0.5,0.1,0.8,0.7,6.9
25.0,5,0.5,0.9,0.5,0.8,0.0,0.2,0.2,0.4,0.0,0.5,0.5,0.1,0.1,0.0,0.2,0.1,1.6
25.0,5,3.7,8.5,1.9,4.7,1.8,3.8,1.2,1.8,0.8,1.6,2.4,2.7,0.7,0.2,1.2,1.2,10.6
30.0,8,3.8,6.9,0.3,0.8,3.4,6.2,0.8,0.9,0.6,2.5,3.1,5.3,1.1,0.1,1.9,1.4,8.7
29.0,8,3.1,6.4,0.5,1.6,2.6,4.8,0.7,0.8,0.6,2.3,2.9,1.0,0.5,0.3,0.5,1.5,7.5
29.0,8,3.9,7.7,0.6,1.8,3.3,5.8,1.0,1.3,0.5,2.3,2.8,1.1,0.6,0.3,0.7,1.7,9.5
29.0,8,1.9,4.4,0.4,1.2,1.5,3.2,0.1,0.1,0.8,2.3,3.1,0.7,0.4,0.3,0.2,1.3,4.2
37.0,14,1.3,2.6,0.2,0.5,1.2,2.1,0.6,0.9,0.7,1.2,1.9,0.7,0.3,0.2,0.5,1.7,3.4
22.0,4,4.0,9.4,0.9,3.1,3.1,6.3,1.9,2.6,0.6,2.6,3.2,3.8,0.6,0.4,1.9,1.7,10.7
21.0,1,3.6,8.0,0.7,2.1,2.9,6.0,1.3,1.8,2.4,3.7,6.0,1.1,1.2,0.6,1.2,2.3,9.3
28.0,7,3.3,7.0,1.4,3.6,1.9,3.4,1.2,1.4,0.3,2.2,2.4,1.6,0.5,0.3,1.3,2.3,9.1
26.0,4,3.4,6.5,1.0,2.4,2.4,4.0,1.1,1.5,1.0,2.5,3.4,2.3,0.5,0.3,1.0,1.8,8.8
25.0,4,2.4,5.7,1.4,3.8,1.0,1.9,0.5,0.7,0.3,1.9,2.2,1.0,0.7,0.2,0.8,1.6,6.7
31.0,11,3.2,7.4,1.5,4.1,1.7,3.3,0.4,0.5,0.3,2.1,2.4,1.5,0.6,0.2,0.7,1.5,8.3
31.0,11,3.1,7.1,1.5,3.8,1.6,3.3,0.4,0.5,0.2,1.8,2.0,1.3,0.6,0.2,0.9,1.3,8.0
31.0,11,3.4,7.9,1.6,4.7,1.8,3.2,0.6,0.7,0.6,2.7,3.3,2.0,0.5,0.1,0.3,2.1,9.0
28.0,8,7.8,18.9,2.6,8.0,5.2,10.8,2.8,3.5,0.8,3.3,4.1,5.1,1.2,0.3,2.1,1.9,21.1
23.0,2,1.3,2.4,0.2,0.6,1.1,1.8,0.2,0.4,0.9,0.6,1.5,0.3,0.1,0.2,0.3,0.8,2.9
23.0,2,1.2,2.5,0.2,0.7,1.0,1.8,0.2,0.3,0.8,0.7,1.5,0.4,0.1,0.2,0.3,0.9,2.7
23.0,2,1.8,2.0,0.2,0.2,1.6,1.8,0.2,0.8,1.0,0.6,1.6,0.0,0.0,0.2,0.0,0.4,4.0
34.0,16,2.0,3.7,0.1,0.6,1.9,3.0,0.3,0.5,1.3,1.8,3.1,1.4,1.0,0.1,0.8,1.6,4.4
30.0,5,0.5,1.2,0.0,0.2,0.5,1.0,0.3,0.6,0.4,0.8,1.2,0.4,0.1,0.1,0.3,0.6,1.4
27.0,5,0.8,2.2,0.6,1.6,0.2,0.6,0.3,0.3,0.3,1.3,1.6,1.2,0.2,0.0,0.3,0.9,2.4
25.0,6,3.9,6.3,0.4,1.0,3.5,5.3,1.6,2.1,1.5,4.3,5.7,0.5,0.3,0.5,0.6,1.7,9.8
25.0,6,4.8,7.3,0.5,1.2,4.3,6.1,2.0,2.6,1.6,5.2,6.8,0.7,0.3,0.6,0.7,1.9,12.1
25.0,6,1.8,3.8,0.2,0.5,1.6,3.3,0.7,1.0,1.1,2.3,3.3,0.1,0.1,0.4,0.6,1.4,4.6
21.0,3,2.3,5.8,0.6,2.2,1.7,3.6,1.4,1.7,0.3,2.5,2.8,3.5,0.8,0.3,1.3,1.4,6.7
30.0,10,4.8,11.9,3.0,7.7,1.8,4.2,1.8,2.3,0.3,3.2,3.5,1.8,0.7,0.2,0.8,1.7,14.4
30.0,12,5.7,11.4,1.7,4.4,4.0,7.0,1.5,1.7,0.9,4.8,5.7,2.5,0.9,0.5,1.2,2.0,14.7
25.0,6,0.5,1.0,0.3,0.4,0.3,0.6,0.3,0.3,0.1,0.8,0.9,0.1,0.1,0.1,0.1,0.2,1.6
32.0,6,2.9,6.3,1.3,3.2,1.6,3.1,0.4,0.6,1.8,3.6,5.4,1.5,0.6,0.8,0.9,2.3,7.4
24.0,5,8.2,19.0,2.1,6.3,6.1,12.7,7.8,8.8,0.8,2.2,3.0,10.2,1.1,0.1,4.1,1.4,26.2
23.0,3,5.0,10.9,0.7,2.3,4.4,8.6,2.2,2.5,0.8,2.8,3.6,6.6,1.3,0.1,1.6,1.4,12.9
21.0,2,2.9,7.5,1.2,3.8,1.7,3.6,0.6,0.8,0.4,1.9,2.3,1.8,0.6,0.2,0.9,1.5,7.7
22.0,2,2.9,5.2,0.4,1.0,2.5,4.2,1.2,1.6,0.7,3.2,3.8,2.1,0.5,0.2,1.1,1.9,7.4
24.0,3,1.1,2.6,0.0,0.1,1.1,2.5,0.1,0.1,0.2,1.4,1.6,1.7,0.3,0.1,0.7,0.7,2.3
25.0,2,1.0,4.1,0.3,2.1,0.7,2.0,0.7,0.7,1.1,1.3,2.4,0.9,0.3,0.7,1.0,0.6,3.0
23.0,1,0.4,1.8,0.4,1.6,0.0,0.2,0.6,0.6,0.0,0.0,0.0,0.6,0.0,0.0,0.2,0.2,1.8
19.0,1,0.3,1.3,0.3,1.3,0.0,0.0,0.0,0.0,0.0,0.7,0.7,0.0,0.0,0.0,0.0,0.0,1.0
27.0,8,2.5,5.5,1.2,3.2,1.4,2.3,1.4,1.7,0.9,3.1,4.1,0.9,0.4,0.4,0.9,1.3,7.6
22.0,2,4.9,10.1,2.6,6.3,2.3,3.8,2.2,2.4,0.7,2.8,3.6,1.4,1.1,0.5,0.8,2.0,14.5
23.0,5,2.6,6.1,1.4,3.7,1.2,2.4,0.4,0.5,0.8,3.2,4.1,1.3,0.8,0.2,0.6,1.6,7.1
25.0,4,2.6,5.4,0.8,2.0,1.8,3.4,0.8,0.9,0.2,1.6,1.7,3.0,0.5,0.1,0.7,1.4,6.9
21.0,1,1.9,5.2,0.6,2.6,1.3,2.6,0.3,0.6,0.1,1.4,1.5,1.5,0.5,0.1,0.5,0.9,4.7
26.0,3,1.3,1.7,0.3,0.7,1.0,1.0,0.0,0.0,0.3,0.3,0.7,0.0,0.0,0.0,0.0,0.0,3.0
23.0,4,7.3,16.6,3.0,8.0,4.2,8.5,2.5,2.7,0.4,5.0,5.4,4.2,0.8,0.2,2.4,1.5,20.1
22.0,3,7.4,15.0,2.9,7.2,4.5,7.8,3.1,3.6,0.6,3.1,3.7,10.4,1.6,0.4,2.5,1.2,20.7
23.0,1,0.6,1.4,0.1,0.4,0.5,1.0,0.1,0.1,0.3,0.4,0.8,0.1,0.1,0.0,0.1,0.1,1.3
22.0,3,7.3,15.2,2.7,6.2,4.7,9.1,3.0,3.6,0.4,2.6,2.9,3.5,0.8,0.1,1.3,2.2,20.3
26.0,8,3.9,8.9,1.5,4.1,2.4,4.8,1.0,1.3,0.4,2.2,2.5,5.2,1.0,0.1,0.9,0.4,10.3
23.0,3,1.6,2.0,0.0,0.0,1.6,2.0,0.2,0.6,0.9,2.4,3.3,0.3,0.2,0.4,0.5,0.9,3.5
42.0,20,1.4,4.1,0.4,1.3,1.0,2.9,0.6,0.7,0.6,1.0,1.6,0.0,0.1,0.3,0.1,1.6,3.9
20.0,2,1.1,2.4,0.3,0.8,0.8,1.6,0.4,0.6,1.6,2.5,4.1,0.9,0.6,0.4,0.6,1.8,3.0
21.0,3,0.2,0.7,0.0,0.0,0.2,0.7,0.2,0.2,0.3,0.7,1.0,0.3,0.2,0.2,0.2,0.5,0.5
30.0,10,3.8,9.6,1.7,5.0,2.1,4.5,1.4,1.9,0.4,2.7,3.0,3.5,1.4,0.3,2.1,2.4,10.7
22.0,1,0.8,2.7,0.3,1.9,0.5,0.8,0.1,0.1,0.3,0.7,1.0,0.3,0.4,0.1,0.3,0.8,2.0
22.0,2,0.5,1.3,0.2,0.7,0.3,0.6,0.0,0.1,0.2,0.7,0.9,0.6,0.2,0.0,0.2,0.6,1.2
25.0,4,1.8,3.8,0.7,1.9,1.1,1.9,0.6,0.7,0.4,1.7,2.1,1.3,0.4,0.2,0.6,1.4,5.0
21.0,1,4.0,5.6,0.0,0.0,4.0,5.6,1.1,2.1,3.1,5.3,8.4,0.9,0.4,2.3,0.8,2.3,9.2
23.0,5,5.6,10.8,1.4,3.9,4.2,6.8,2.5,3.4,2.1,6.6,8.7,2.3,0.5,0.6,1.9,2.8,15.2
21.0,1,0.6,1.5,0.1,0.6,0.6,0.9,0.1,0.2,0.1,0.5,0.6,0.6,0.3,0.2,0.3,0.4,1.4
25.0,4,2.3,3.8,0.1,0.5,2.1,3.3,0.8,1.2,1.7,2.5,4.2,0.5,0.4,0.5,0.7,2.1,5.5
36.0,14,1.1,3.1,0.8,2.4,0.4,0.7,0.5,0.5,0.7,1.5,2.2,0.7,0.4,0.3,0.3,1.4,3.4
32.0,11,2.5,6.5,1.2,3.2,1.3,3.3,0.7,0.8,0.3,2.2,2.4,2.0,0.5,0.2,0.9,1.0,6.8
32.0,11,2.8,7.1,1.3,3.5,1.5,3.7,0.9,1.1,0.3,2.5,2.8,2.4,0.4,0.3,1.1,1.0,7.7
32.0,11,1.8,4.9,0.9,2.6,0.9,2.3,0.1,0.1,0.3,1.3,1.6,1.1,0.7,0.2,0.2,1.1,4.5
28.0,7,2.3,4.4,0.1,0.3,2.3,4.2,2.1,2.7,1.5,3.2,4.7,0.9,0.4,0.3,1.0,1.7,6.9
27.0,1,1.7,2.8,0.0,0.1,1.7,2.7,0.4,1.0,1.6,2.2,3.8,0.6,0.6,0.4,0.8,1.3,3.8
28.0,2,0.8,2.3,0.3,0.8,0.5,1.5,0.0,0.0,0.0,0.8,0.8,1.3,0.0,0.0,0.3,0.5,1.8
25.0,2,1.3,2.5,0.8,1.5,0.5,1.0,1.0,1.0,0.0,1.3,1.3,1.3,0.0,0.3,0.8,1.8,4.3
24.0,3,3.1,5.0,0.1,0.2,3.0,4.8,0.8,1.5,2.0,3.0,5.0,1.6,1.0,0.5,0.7,1.6,7.0
28.0,5,2.0,4.0,1.0,2.3,0.9,1.7,0.6,0.8,0.5,1.9,2.4,0.8,0.4,0.3,0.4,1.4,5.6
25.0,5,4.5,8.7,0.9,2.3,3.6,6.4,1.7,2.3,1.8,4.5,6.4,2.9,0.6,0.8,2.0,3.2,11.6
27.0,9,8.7,18.0,2.6,7.1,6.1,11.0,4.7,5.6,0.5,3.9,4.5,4.2,0.9,0.2,2.5,2.1,24.8
22.0,3,2.1,3.7,0.3,1.2,1.8,2.5,0.8,1.2,1.2,1.4,2.6,0.3,0.3,0.4,0.6,2.0,5.2
21.0,2,2.3,5.3,0.7,2.6,1.6,2.7,0.5,0.6,0.4,1.7,2.1,0.9,0.4,0.2,1.0,1.6,5.7
22.0,3,9.8,16.2,0.2,0.7,9.6,15.5,6.1,8.6,2.0,5.0,7.0,4.6,1.1,0.6,3.4,2.2,26.0
26.0,8,5.8,11.1,1.2,3.5,4.6,7.7,2.3,3.1,1.7,4.2,5.9,2.5,0.6,0.6,1.8,2.0,15.0
22.0,1,0.2,0.8,0.0,0.2,0.2,0.7,0.0,0.0,0.0,0.2,0.2,0.0,0.0,0.3,0.3,0.3,0.3
25.0,4,2.4,5.4,0.6,1.6,1.8,3.7,0.9,1.1,0.4,1.6,1.9,2.4,0.7,0.1,1.1,1.5,6.3
25.0,4,2.4,5.2,0.6,1.6,1.9,3.6,0.7,0.9,0.2,1.4,1.6,1.9,0.6,0.2,1.0,1.5,6.1
25.0,4,2.3,5.6,0.7,1.6,1.6,4.0,1.4,1.5,0.7,1.8,2.5,3.4,0.8,0.0,1.3,1.5,6.8
22.0,2,1.4,3.5,0.6,2.2,0.8,1.3,0.4,0.5,0.3,1.4,1.7,0.4,0.4,0.1,0.6,1.3,3.8
23.0,1,3.1,6.7,0.8,2.8,2.3,4.0,1.2,1.7,1.0,2.5,3.6,1.4,0.6,0.2,1.1,1.9,8.3
28.0,5,0.9,2.5,0.3,1.0,0.6,1.5,0.4,0.7,0.3,1.6,1.9,0.5,0.6,0.3,0.8,1.4,2.4
24.0,1,0.0,0.0,0.0,0.0,0.0,0.0,0.0,0.0,0.0,0.0,0.0,0.0,0.0,0.0,0.0,0.0,0.0
24.0,2,1.4,3.4,0.7,2.1,0.7,1.3,0.3,0.4,0.4,1.9,2.3,0.7,0.1,0.1,0.6,1.5,3.8
25.0,1,1.0,1.0,0.0,0.0,1.0,1.0,0.0,0.0,0.0,0.0,0.0,0.0,0.0,0.0,0.0,0.0,2.0
35.0,15,3.9,8.2,1.3,3.8,2.6,4.4,1.2,1.4,1.6,6.1,7.7,3.4,0.7,1.3,0.9,1.9,10.2
30.0,11,3.5,9.0,1.9,4.8,1.6,4.2,2.7,3.3,0.6,4.3,4.9,3.0,1.0,0.3,1.1,2.7,11.7
24.0,1,1.2,4.0,0.4,3.0,0.8,1.0,0.0,0.0,0.4,2.6,3.0,0.4,0.2,0.0,0.8,1.4,2.8
20.0,2,3.0,7.5,0.9,3.2,2.1,4.2,0.6,0.8,1.2,4.0,5.2,2.1,0.6,0.6,1.5,1.4,7.6
27.0,5,2.5,6.2,1.0,3.1,1.5,3.2,1.4,1.8,0.8,2.8,3.6,4.0,1.7,0.4,1.4,2.6,7.4
28.0,9,2.4,4.5,0.2,0.5,2.3,4.0,1.1,1.6,1.3,2.8,4.1,1.2,0.3,0.6,1.1,2.6,6.0
29.0,5,1.4,3.6,0.5,1.6,0.9,2.0,0.1,0.5,0.8,1.2,1.9,0.3,0.1,0.2,0.4,1.5,3.5
25.0,4,0.7,1.7,0.0,0.2,0.7,1.5,0.3,0.5,1.2,1.4,2.7,0.4,0.2,0.0,0.5,0.8,1.8
25.0,4,0.8,1.4,0.0,0.1,0.8,1.3,0.3,0.4,1.0,1.3,2.3,0.5,0.2,0.0,0.5,0.9,1.8
25.0,4,0.7,2.0,0.0,0.7,0.7,1.3,0.0,0.3,1.7,2.3,4.0,0.0,0.0,0.0,1.0,0.0,1.3
25.0,4,0.8,2.5,0.0,0.0,0.8,2.5,0.8,1.0,1.8,1.5,3.3,0.3,0.5,0.0,0.3,0.8,2.3
19.0,1,3.5,7.3,0.4,1.6,3.1,5.7,2.3,3.2,1.9,3.5,5.5,2.6,0.8,0.9,2.0,3.0,9.6
24.0,3,3.1,6.8,1.4,3.7,1.7,3.1,1.5,1.7,0.4,2.5,2.9,1.8,0.6,0.2,0.7,1.3,9.0
28.0,10,3.4,5.9,0.0,0.0,3.4,5.9,1.2,2.2,3.1,6.2,9.3,1.8,1.1,0.9,1.6,2.6,7.9
28.0,10,2.6,4.9,0.0,0.0,2.6,4.8,0.9,1.7,2.8,6.1,8.8,2.0,1.1,0.9,1.6,2.5,6.1
28.0,10,5.0,8.1,0.0,0.0,5.0,8.1,1.8,3.4,3.9,6.4,10.3,1.4,0.9,1.0,1.5,3.0,11.8
38.0,18,1.5,3.9,0.5,2.4,0.9,1.5,0.5,0.6,0.7,2.5,3.2,3.7,0.9,0.7,0.9,1.1,4.0
26.0,8,6.5,14.0,2.2,5.5,4.4,8.5,2.0,3.2,1.2,3.3,4.5,2.2,1.0,0.7,1.5,2.2,17.2
22.0,4,6.2,14.0,3.1,7.8,3.1,6.2,1.8,2.0,0.5,2.2,2.6,3.9,0.5,0.1,2.0,1.9,17.3
28.0,10,9.3,17.4,0.3,1.8,8.9,15.6,4.4,6.1,2.7,7.2,9.9,3.1,1.2,2.3,2.1,2.4,23.2
20.0,2,7.6,17.3,3.0,8.4,4.6,8.9,3.1,3.9,0.9,3.9,4.8,3.8,1.5,0.6,2.6,2.3,21.3
29.0,2,1.4,2.5,0.3,0.6,1.1,1.9,1.0,1.2,0.8,1.2,1.9,0.6,0.1,0.3,0.4,1.3,4.1
24.0,2,0.0,1.0,0.0,1.0,0.0,0.0,0.0,0.0,0.0,0.5,0.5,1.0,0.0,0.0,0.0,0.0,0.0
23.0,2,1.8,5.4,1.4,4.6,0.4,0.7,0.3,0.4,0.4,1.5,1.9,1.1,0.5,0.2,0.5,1.4,5.3
23.0,2,2.1,6.1,1.6,5.2,0.6,0.9,0.4,0.5,0.3,1.7,2.0,1.2,0.5,0.2,0.6,1.5,6.2
23.0,2,0.8,2.9,0.8,2.8,0.1,0.2,0.2,0.2,0.6,1.1,1.7,1.0,0.5,0.2,0.3,1.1,2.6
24.0,1,0.0,0.5,0.0,0.5,0.0,0.0,0.0,0.0,0.0,0.0,0.0,0.0,0.0,0.0,0.0,0.5,0.0
23.0,1,2.4,5.2,0.9,2.7,1.5,2.5,1.6,1.9,0.7,2.4,3.2,1.8,0.5,0.3,0.7,1.4,7.3
29.0,10,2.2,5.2,1.2,3.4,1.0,1.8,0.5,0.7,0.3,1.4,1.7,1.3,0.8,0.1,0.8,1.8,6.0
31.0,12,2.4,5.6,1.3,3.4,1.1,2.3,0.3,0.3,0.5,1.7,2.2,0.8,0.9,0.1,0.6,1.9,6.4
22.0,1,3.6,6.9,0.9,2.4,2.7,4.5,0.7,1.0,0.4,2.4,2.8,3.3,0.8,0.4,1.4,2.4,8.8
26.0,3,2.8,6.3,1.0,2.5,1.8,3.8,0.0,0.0,1.5,2.3,3.8,0.0,0.0,0.3,0.0,1.0,6.5
24.0,5,7.3,13.0,0.0,0.1,7.3,12.9,4.6,6.1,2.4,7.6,10.1,3.4,1.4,0.8,2.6,3.1,19.1
28.0,9,3.4,8.4,2.4,6.5,1.0,1.9,1.1,1.4,0.2,1.4,1.6,0.9,0.6,0.2,0.9,1.6,10.2
29.0,11,2.4,4.0,0.0,0.0,2.4,4.0,1.1,2.0,1.8,2.9,4.6,0.6,0.3,0.7,0.7,1.9,5.8
32.0,12,2.4,5.6,0.7,2.6,1.7,3.0,1.0,1.4,1.1,3.0,4.1,1.9,0.5,0.3,0.6,1.7,6.4
33.0,7,1.8,3.0,0.0,0.2,1.8,2.9,0.6,1.0,0.3,1.3,1.7,0.1,0.0,0.1,0.7,1.0,4.3
26.0,7,5.8,12.1,1.8,4.7,3.9,7.4,1.2,1.6,2.5,6.6,9.1,1.2,0.7,0.7,1.3,2.4,14.6
29.0,5,5.4,12.6,2.7,7.3,2.7,5.3,1.5,1.8,0.5,3.5,4.0,3.1,1.1,0.2,1.1,2.1,15.1
32.0,8,6.1,13.4,2.6,6.8,3.5,6.7,3.2,3.8,0.8,3.4,4.3,1.7,0.5,0.0,1.7,1.7,18.1
22.0,3,1.1,1.9,0.1,0.3,1.0,1.6,0.1,0.4,0.3,1.1,1.4,0.4,0.1,0.1,0.3,0.3,2.4
21.0,1,3.3,8.3,1.9,5.2,1.4,3.1,1.6,1.8,0.2,2.5,2.7,2.8,0.6,0.3,1.2,2.2,10.1
32.0,4,1.2,3.3,0.2,0.7,1.0,2.6,1.0,1.1,0.3,1.4,1.7,2.4,0.3,0.3,1.0,2.0,3.6
32.0,4,1.2,3.3,0.2,0.8,1.0,2.5,0.9,1.0,0.3,1.3,1.6,2.2,0.2,0.3,1.0,1.9,3.5
32.0,4,2.0,5.0,0.0,0.0,2.0,5.0,3.0,3.0,0.0,4.0,4.0,7.0,2.0,0.0,0.0,3.0,7.0
28.0,10,8.7,19.3,1.6,5.3,7.1,14.0,4.2,5.1,1.0,3.8,4.7,6.6,0.9,0.4,3.4,2.4,23.2
20.0,1,2.5,6.4,0.7,2.2,1.8,4.2,1.2,1.4,0.3,1.8,2.2,1.0,0.5,0.3,0.6,0.8,6.7
25.0,3,4.5,7.0,0.1,0.3,4.4,6.6,1.3,2.0,2.1,3.2,5.3,1.3,0.6,1.1,0.5,1.9,10.4
26.0,4,1.8,4.3,0.5,1.5,1.3,2.8,0.7,1.1,0.4,1.5,1.9,2.5,0.7,0.0,1.0,1.1,4.8
24.0,6,8.2,17.9,1.3,4.1,6.9,13.8,4.8,5.9,0.6,5.2,5.8,5.6,0.6,0.5,2.7,2.2,22.7
30.0,9,2.0,5.0,0.8,3.4,1.2,1.6,1.6,1.6,0.0,1.6,1.6,1.6,0.2,0.0,0.8,1.0,6.4
22.0,1,4.4,11.8,1.3,4.4,3.1,7.3,2.8,4.0,0.8,2.3,3.1,3.9,1.0,0.4,2.4,2.2,12.9
24.0,1,3.0,6.5,0.5,1.9,2.5,4.6,0.6,1.2,1.2,3.4,4.5,1.0,0.9,1.0,1.0,2.4,7.2
24.0,1,0.5,1.0,0.0,0.5,0.5,0.5,0.0,0.0,0.5,0.5,1.0,0.5,0.5,0.0,1.0,0.5,1.0
24.0,1,3.6,7.8,0.7,2.2,2.9,5.6,0.8,1.4,1.3,4.0,5.3,1.1,1.0,1.2,1.0,2.8,8.6
25.0,2,0.7,1.5,0.2,0.8,0.5,0.8,0.3,0.4,0.2,0.7,0.8,0.9,0.1,0.1,0.5,0.6,1.8
33.0,14,4.7,10.1,1.5,4.1,3.2,6.0,1.5,1.8,1.5,2.6,4.1,0.5,0.6,1.2,0.9,2.6,12.4
25.0,4,3.6,7.0,0.5,1.3,3.0,5.7,1.3,1.8,1.4,3.4,4.8,2.1,1.1,0.7,0.8,2.4,9.0
23.0,3,1.2,1.8,0.0,0.1,1.2,1.8,0.5,0.8,0.6,1.2,1.8,0.2,0.0,0.4,0.5,0.8,2.9
23.0,3,0.4,0.7,0.1,0.1,0.3,0.7,0.2,0.3,0.4,0.4,0.8,0.2,0.0,0.2,0.3,0.3,1.0
23.0,3,2.9,4.1,0.0,0.1,2.9,4.0,1.1,1.9,1.1,2.9,4.0,0.3,0.1,0.8,0.9,1.8,6.9
28.0,6,3.1,7.2,1.6,3.9,1.5,3.3,1.1,1.2,0.1,1.1,1.2,1.0,0.3,0.1,0.7,1.3,8.8
28.0,6,3.2,7.4,1.6,3.8,1.6,3.6,1.1,1.2,0.1,1.5,1.6,1.0,0.4,0.1,0.8,1.1,9.1
28.0,6,2.9,6.9,1.7,4.1,1.3,2.8,1.0,1.1,0.2,0.7,0.9,1.0,0.2,0.1,0.7,1.5,8.6
29.0,6,5.5,13.6,3.2,8.8,2.3,4.7,1.4,1.6,0.8,3.5,4.4,2.8,0.9,0.3,1.9,2.3,15.6
29.0,6,4.8,12.6,3.3,9.0,1.5,3.6,1.5,1.7,0.8,3.2,4.0,1.9,0.9,0.3,1.6,2.1,14.4
29.0,6,7.0,15.6,3.1,8.5,3.9,7.1,1.2,1.3,0.9,4.2,5.1,4.8,1.0,0.4,2.4,2.7,18.2
34.0,16,0.0,0.0,0.0,0.0,0.0,0.0,0.0,0.0,0.0,0.0,0.0,0.0,0.0,0.0,0.0,1.0,0.0
21.0,2,2.1,5.3,0.6,2.2,1.4,3.1,1.0,1.4,1.1,2.8,3.9,1.5,0.6,0.3,1.0,2.0,5.8
30.0,9,8.6,18.8,2.9,7.6,5.7,11.2,1.9,2.7,0.9,3.5,4.3,5.1,1.1,0.4,2.0,2.0,22.1
30.0,9,8.1,18.5,3.1,8.0,5.0,10.4,1.3,1.9,0.9,3.3,4.3,4.5,1.0,0.6,1.9,2.1,20.5
30.0,9,9.5,19.2,2.7,6.9,6.7,12.3,2.6,3.9,0.7,3.7,4.5,5.8,1.3,0.0,2.2,1.7,24.3
20.0,1,6.7,16.1,1.8,5.7,4.9,10.4,2.2,2.6,0.9,4.6,5.5,5.6,1.2,0.7,3.7,3.1,17.4
26.0,3,3.5,6.8,1.1,2.6,2.4,4.3,1.2,1.6,1.2,2.7,3.8,1.1,1.0,0.5,0.9,1.7,9.2
22.0,3,3.4,8.3,1.3,3.8,2.0,4.6,2.1,2.3,0.5,1.6,2.1,1.0,1.0,0.3,1.2,1.2,10.1
22.0,3,4.1,10.1,1.7,4.5,2.4,5.6,2.1,2.4,0.6,1.9,2.5,1.1,1.0,0.3,1.3,1.3,11.9
22.0,3,1.8,4.3,0.5,2.1,1.3,2.3,1.9,2.1,0.3,1.1,1.4,0.7,0.8,0.3,0.9,1.0,6.1
20.0,1,3.3,7.5,0.7,2.6,2.6,4.9,1.3,1.6,0.2,2.2,2.4,1.2,0.5,0.1,0.8,1.0,8.5
25.0,3,4.2,9.2,2.5,5.9,1.7,3.3,1.5,1.7,0.6,3.5,4.1,1.5,0.9,0.2,0.7,1.7,12.5
24.0,1,1.7,4.7,0.7,2.0,1.0,2.7,0.7,0.7,2.0,3.0,5.0,1.0,0.0,0.3,0.0,2.3,4.7
25.0,2,5.0,7.5,0.5,1.5,4.5,6.0,1.0,1.5,1.0,2.0,3.0,1.5,0.5,0.5,0.0,2.5,11.5
27.0,7,4.1,10.1,1.2,3.6,2.9,6.5,1.3,1.5,0.4,2.6,3.0,4.9,0.7,0.3,1.8,2.1,10.8
27.0,6,6.5,14.7,1.4,4.4,5.1,10.3,2.5,3.3,0.7,2.9,3.7,4.3,0.9,0.4,1.9,2.3,17.0
27.0,6,7.1,15.9,1.6,4.8,5.6,11.1,2.8,3.7,0.8,3.1,3.8,4.4,0.9,0.5,1.9,2.3,18.7
27.0,6,5.3,12.2,1.1,3.5,4.2,8.7,1.8,2.5,0.7,2.7,3.4,3.9,0.8,0.3,1.7,2.1,13.6
24.0,1,0.2,1.8,0.0,0.2,0.2,1.6,0.4,0.4,0.2,0.4,0.6,1.0,0.2,0.0,0.6,0.0,0.8
24.0,1,0.0,2.3,0.0,0.3,0.0,2.0,0.7,0.7,0.3,0.7,1.0,1.7,0.3,0.0,1.0,0.0,0.7
24.0,1,0.5,1.0,0.0,0.0,0.5,1.0,0.0,0.0,0.0,0.0,0.0,0.0,0.0,0.0,0.0,0.0,1.0
37.0,19,4.6,10.5,2.2,5.8,2.5,4.7,1.9,2.3,0.9,3.3,4.2,1.0,0.7,0.8,0.9,2.4,13.3
23.0,3,2.3,7.5,1.0,4.0,1.3,3.5,0.3,0.3,0.5,1.0,1.5,3.5,0.5,0.0,1.3,1.0,5.8
22.0,2,2.1,5.1,0.4,1.9,1.7,3.2,1.1,1.1,0.6,1.6,2.1,0.4,0.6,0.2,0.7,1.9,5.8
23.0,2,0.6,1.6,0.3,0.9,0.3,0.7,0.6,0.6,0.0,0.1,0.1,1.0,0.0,0.0,0.4,1.3,2.0
27.0,1,0.0,1.3,0.0,0.0,0.0,1.3,0.0,1.3,0.3,0.7,1.0,1.0,0.0,0.0,0.3,0.3,0.0
26.0,5,3.7,8.7,1.9,5.4,1.8,3.2,1.3,2.0,0.4,1.8,2.2,2.0,0.8,0.2,1.0,1.9,10.7
25.0,4,0.2,0.3,0.0,0.0,0.2,0.3,0.3,0.3,0.0,0.8,0.8,0.3,0.0,0.0,0.7,0.2,0.7
21.0,1,1.3,2.0,0.0,0.2,1.3,1.9,0.4,0.5,1.0,1.7,2.7,0.3,0.2,0.7,0.3,1.4,3.0
24.0,3,0.5,1.8,0.0,0.5,0.4,1.2,0.4,0.5,0.6,0.8,1.5,0.3,0.5,0.2,0.2,0.8,1.4
24.0,3,0.3,1.7,0.0,1.0,0.3,0.7,0.0,0.0,0.0,0.3,0.3,0.3,0.7,0.3,0.0,0.7,0.7
24.0,3,0.5,1.8,0.1,0.5,0.4,1.3,0.5,0.5,0.7,0.9,1.6,0.3,0.4,0.2,0.3,0.8,1.5
23.0,1,2.0,6.4,1.2,3.6,0.8,2.8,1.0,1.2,0.2,3.0,3.2,0.8,0.4,0.0,0.2,1.4,6.2
23.0,1,0.5,3.5,0.0,1.5,0.5,2.0,0.0,0.0,0.0,1.0,1.0,0.0,0.0,0.0,0.5,0.0,1.0
23.0,1,3.0,8.3,2.0,5.0,1.0,3.3,1.7,2.0,0.3,4.3,4.7,1.3,0.7,0.0,0.0,2.3,9.7
25.0,5,1.0,2.7,0.0,0.0,1.0,2.7,1.7,2.0,1.3,2.7,4.0,0.0,0.3,0.0,0.3,2.0,3.7
24.0,4,3.4,7.5,1.0,3.1,2.4,4.4,1.2,1.5,0.6,5.0,5.6,1.0,0.9,0.5,1.0,1.6,8.9
29.0,5,3.4,7.2,0.9,2.9,2.5,4.4,1.9,2.4,2.2,3.9,6.2,0.3,0.6,0.9,0.5,2.2,9.4
26.0,4,0.7,2.4,0.5,1.6,0.2,0.8,0.1,0.1,0.3,0.8,1.1,1.9,0.4,0.0,0.9,0.9,2.0
24.0,1,4.9,11.3,1.7,4.6,3.2,6.7,1.6,2.0,0.7,3.4,4.1,2.1,1.0,0.2,1.6,1.7,13.1
36.0,17,5.6,11.3,1.0,3.1,4.6,8.3,2.6,3.1,0.3,4.0,4.4,10.8,1.9,0.3,2.4,2.1,14.7
25.0,3,0.8,1.5,0.0,0.0,0.8,1.5,1.0,1.2,1.3,2.3,3.6,0.7,0.0,0.1,0.8,2.0,2.6
25.0,3,0.0,0.0,0.0,0.0,0.0,0.0,0.0,0.0,0.0,1.0,1.0,0.0,0.0,0.0,0.0,0.0,0.0
25.0,3,0.9,1.7,0.0,0.0,0.9,1.7,1.1,1.3,1.4,2.4,3.9,0.8,0.0,0.1,0.9,2.2,2.9
26.0,6,6.5,12.9,1.9,4.9,4.5,8.0,3.0,4.9,1.6,8.5,10.1,2.3,0.8,1.0,1.9,2.5,17.9
23.0,2,3.1,8.2,1.7,5.3,1.4,2.9,0.8,0.9,0.7,4.3,5.0,1.7,1.4,0.6,0.8,1.4,8.6
27.0,8,5.0,8.2,0.0,0.0,5.0,8.1,1.1,2.3,3.8,8.1,11.9,1.2,0.7,1.3,0.6,2.2,11.1
21.0,3,4.6,10.6,2.2,5.8,2.3,4.8,1.3,1.5,0.3,2.7,3.0,2.9,0.5,0.2,1.1,2.2,12.7
26.0,3,2.9,6.0,0.9,2.2,2.0,3.7,1.1,1.5,1.2,2.9,4.0,2.5,1.2,0.5,0.9,1.6,7.7
29.0,9,1.9,3.3,0.0,0.1,1.9,3.2,1.4,1.8,1.9,2.8,4.6,0.8,0.3,0.2,0.7,2.1,5.2
21.0,2,5.5,14.0,2.0,6.0,3.5,8.0,3.3,3.9,0.5,4.9,5.4,5.7,0.7,0.3,2.6,2.6,16.3
23.0,4,6.2,13.7,1.0,4.1,5.2,9.6,2.6,3.5,1.2,2.1,3.3,2.1,0.9,0.0,2.8,2.3,16.0
22.0,1,3.0,6.7,1.5,4.2,1.6,2.5,0.7,0.8,0.7,2.0,2.7,1.1,0.5,0.3,0.6,1.2,8.2
30.0,11,2.7,6.2,1.0,2.4,1.7,3.7,1.5,1.7,0.4,2.2,2.7,3.6,0.6,0.3,1.3,2.3,8.0
28.0,1,1.0,1.3,0.0,0.3,1.0,1.0,0.0,0.0,0.0,0.0,0.0,0.3,1.3,0.0,0.3,2.3,2.0
25.0,7,6.2,15.0,2.7,8.0,3.5,7.0,3.0,3.7,0.4,2.9,3.3,7.1,1.0,0.3,2.5,2.0,18.1
34.0,14,1.7,4.0,1.2,3.0,0.5,1.1,0.7,0.8,0.2,1.0,1.2,1.9,0.3,0.0,1.0,0.7,5.3
34.0,14,1.6,4.0,1.1,2.8,0.5,1.2,1.0,1.1,0.2,1.0,1.2,2.2,0.3,0.0,1.3,0.5,5.4
34.0,14,1.9,4.1,1.4,3.2,0.5,0.9,0.2,0.2,0.2,1.1,1.3,1.6,0.3,0.0,0.5,1.0,5.3
25.0,5,2.8,3.8,0.0,0.5,2.8,3.3,2.0,2.5,0.3,3.8,4.0,1.3,1.3,0.3,0.5,1.5,7.5
24.0,3,0.3,0.7,0.0,0.3,0.3,0.3,0.0,0.0,0.0,0.7,0.7,0.3,0.0,0.0,0.0,0.3,0.7
19.0,1,1.1,2.8,0.3,1.1,0.8,1.7,0.7,1.3,0.3,1.1,1.4,1.7,0.6,0.0,1.1,0.9,3.2
26.0,2,0.3,1.0,0.3,1.0,0.0,0.0,0.0,0.0,0.0,0.3,0.3,0.2,0.2,0.0,0.0,0.2,1.0
22.0,1,1.3,3.2,0.2,0.8,1.1,2.4,0.4,0.7,0.6,1.3,1.9,1.5,0.4,0.2,0.8,1.1,3.2
26.0,6,3.1,4.8,0.2,0.5,2.9,4.2,1.7,2.3,1.3,3.1,4.4,1.2,0.5,0.8,1.1,2.3,8.1
31.0,10,7.7,19.0,3.2,9.8,4.5,9.2,5.5,6.2,0.4,3.7,4.1,7.3,0.6,0.4,2.9,1.3,24.0
29.0,5,2.7,6.1,1.0,3.0,1.7,3.1,1.0,1.2,0.4,2.8,3.2,1.0,0.6,0.1,0.6,1.5,7.4
27.0,5,1.0,2.0,0.0,0.5,1.0,1.5,0.0,0.0,0.0,1.0,1.0,0.5,0.0,0.0,0.0,0.0,2.0
23.0,3,4.0,5.7,0.0,0.0,4.0,5.7,1.5,2.1,2.2,3.5,5.7,0.9,0.4,1.4,0.9,2.4,9.4
22.0,2,1.0,2.0,0.0,0.3,1.0,1.7,1.0,1.7,0.3,1.3,1.7,0.0,0.0,0.7,0.0,0.3,3.0
29.0,5,3.2,6.2,0.7,2.3,2.5,3.9,1.0,1.5,1.3,3.6,4.9,0.9,0.4,0.7,1.0,2.4,8.2
29.0,5,3.2,6.9,0.9,3.0,2.3,3.8,1.0,1.5,1.2,3.8,5.0,0.8,0.4,0.7,1.2,2.4,8.4
29.0,5,3.2,5.3,0.5,1.3,2.7,4.0,1.0,1.5,1.3,3.4,4.7,1.0,0.4,0.7,0.7,2.3,7.9
33.0,13,3.9,9.0,1.7,4.5,2.2,4.6,2.1,2.4,0.5,4.1,4.7,1.5,0.4,0.2,0.6,1.4,11.7
34.0,13,2.0,5.2,1.7,4.4,0.4,0.8,0.2,0.2,0.5,2.0,2.5,1.0,1.0,0.6,0.7,1.7,5.9
28.0,6,1.9,4.7,1.0,2.8,0.9,1.9,1.0,1.4,0.4,2.2,2.6,1.0,0.5,0.4,0.8,1.2,5.9
28.0,6,1.6,4.6,0.6,2.1,0.9,2.5,1.1,1.2,0.3,2.4,2.7,1.2,0.3,0.3,1.1,1.0,4.8
28.0,6,0.0,1.0,0.0,1.0,0.0,0.0,0.0,0.0,0.0,0.0,0.0,0.0,0.0,0.0,0.0,0.0,0.0
28.0,6,2.2,4.9,1.4,3.3,0.8,1.6,1.1,1.6,0.6,2.2,2.7,1.0,0.6,0.5,0.6,1.4,6.8
21.0,3,4.0,9.4,1.2,3.9,2.8,5.5,1.7,2.5,1.0,5.3,6.3,1.4,0.8,1.0,1.3,1.0,10.8
22.0,3,8.0,17.3,2.6,6.7,5.4,10.6,3.2,3.5,0.6,2.7,3.3,8.6,1.3,0.1,3.6,1.7,21.7
34.0,11,0.7,2.3,0.0,1.0,0.7,1.3,0.0,0.0,0.0,1.3,1.3,0.7,0.3,0.0,0.3,1.7,1.3
22.0,1,1.8,4.9,0.4,1.7,1.4,3.2,0.8,1.0,1.4,1.7,3.0,0.8,0.6,0.3,0.4,1.6,4.7
20.0,1,0.0,0.5,0.0,0.5,0.0,0.0,0.0,0.0,0.0,0.0,0.0,0.0,0.0,0.0,0.0,0.0,0.0
29.0,6,1.8,3.8,0.3,1.1,1.5,2.8,1.0,1.5,0.9,2.4,3.3,0.8,0.6,0.4,0.5,1.2,5.1
23.0,1,4.7,11.2,1.3,4.3,3.3,7.0,0.7,1.1,0.4,1.8,2.2,4.2,0.7,0.3,1.5,1.9,11.5
26.0,3,1.7,3.4,0.8,1.8,0.9,1.6,0.2,0.3,0.3,2.0,2.3,1.1,0.5,0.2,0.3,1.3,4.4
20.0,1,2.7,4.7,0.1,0.2,2.6,4.4,0.8,1.3,2.5,2.5,5.0,0.5,0.3,0.5,0.9,1.9,6.2
24.0,5,8.7,18.5,1.3,4.2,7.5,14.3,4.4,5.9,0.4,3.5,3.9,5.6,1.2,0.4,2.8,2.9,23.2
24.0,3,4.8,10.8,1.4,3.7,3.4,7.2,2.4,3.1,0.5,2.8,3.3,1.3,0.7,0.4,1.3,2.9,13.4
23.0,4,3.8,9.5,1.9,5.1,1.9,4.4,1.2,1.6,0.9,3.6,4.5,2.7,1.4,0.5,1.5,1.8,10.8
33.0,14,1.9,3.0,0.0,0.0,1.9,3.0,0.5,0.8,1.7,3.8,5.5,0.4,0.3,0.7,0.8,1.5,4.3
33.0,14,1.9,2.8,0.0,0.0,1.9,2.8,0.4,0.8,1.6,3.8,5.4,0.4,0.3,0.8,0.7,1.6,4.1
33.0,14,2.0,3.4,0.0,0.0,2.0,3.4,0.6,0.9,2.0,3.8,5.8,0.5,0.1,0.6,1.0,1.3,4.6
27.0,6,2.2,3.9,0.3,0.6,1.9,3.3,0.4,0.6,0.8,2.2,2.9,1.2,0.9,0.4,0.6,2.0,5.1
27.0,6,2.5,4.4,0.3,0.8,2.2,3.7,0.4,0.7,0.8,2.4,3.2,1.3,1.0,0.5,0.6,2.2,5.8
27.0,6,0.4,1.0,0.0,0.0,0.4,1.0,0.0,0.0,0.5,0.9,1.4,0.8,0.3,0.0,0.1,1.1,0.8
24.0,1,0.0,0.0,0.0,0.0,0.0,0.0,0.0,0.0,0.0,0.0,0.0,0.0,0.0,0.0,0.0,0.0,0.0
32.0,13,10.2,20.2,0.7,1.9,9.5,18.3,6.8,7.8,0.7,4.4,5.2,4.9,0.9,0.3,2.4,2.3,27.9
31.0,11,3.1,6.8,0.8,2.5,2.3,4.2,2.0,2.6,1.5,4.1,5.6,1.5,0.7,0.4,1.8,2.9,9.0
31.0,11,3.2,6.9,0.8,2.8,2.5,4.1,1.8,2.2,1.4,4.4,5.8,1.1,0.9,0.5,0.9,2.7,9.1
31.0,11,3.0,6.6,0.8,2.4,2.3,4.3,2.1,2.8,1.6,3.9,5.5,1.7,0.6,0.4,2.2,3.0,8.9
25.0,3,1.9,4.3,1.0,2.8,0.9,1.5,0.4,0.6,0.6,2.3,2.9,1.0,0.6,0.1,0.3,1.7,5.3
23.0,4,7.6,12.0,0.1,0.3,7.5,11.7,1.8,2.4,2.6,7.7,10.2,1.4,0.7,0.7,1.6,2.4,17.2
21.0,2,0.3,3.3,0.3,2.3,0.0,1.0,0.0,0.0,0.0,2.0,2.0,0.3,1.0,0.3,0.0,1.3,1.0
25.0,5,8.4,18.3,1.4,4.3,7.0,13.9,2.9,3.6,1.2,7.1,8.3,9.2,2.0,0.3,2.6,2.0,21.1
29.0,7,1.6,3.5,0.6,1.5,1.0,2.0,0.7,0.8,0.6,2.2,2.9,2.4,1.2,0.2,0.6,0.7,4.4
21.0,2,3.0,7.1,1.0,3.2,2.0,3.9,1.3,1.7,0.6,4.5,5.2,2.0,0.7,0.5,1.1,2.3,8.4
28.0,9,4.9,11.3,1.3,3.9,3.5,7.4,2.5,2.9,0.5,2.8,3.3,4.6,0.8,0.1,2.2,2.4,13.5
28.0,9,5.2,11.9,1.4,3.9,3.9,8.0,2.5,3.0,0.6,2.8,3.3,4.2,0.8,0.1,2.1,2.4,14.4
28.0,9,3.7,9.3,1.3,3.9,2.4,5.5,2.3,2.6,0.4,2.9,3.3,5.9,0.8,0.2,2.6,2.5,10.9
24.0,5,2.1,5.1,0.2,0.7,2.0,4.4,1.1,1.7,0.5,1.8,2.4,3.6,1.2,0.3,1.4,1.4,5.6
28.0,5,1.0,2.8,0.8,2.0,0.3,0.8,0.0,0.0,0.4,1.4,1.8,0.5,0.3,0.0,0.5,0.8,2.9
28.0,5,1.0,2.8,0.8,2.0,0.2,0.8,0.0,0.0,0.4,1.3,1.7,0.5,0.3,0.0,0.5,0.8,2.9
28.0,5,1.0,2.0,0.5,1.5,0.5,0.5,0.0,0.0,0.0,2.0,2.0,0.0,0.5,0.0,1.0,1.5,2.5
30.0,12,2.4,4.7,0.1,0.4,2.4,4.3,0.4,0.6,1.5,3.2,4.7,0.6,0.4,0.3,0.2,1.6,5.3
24.0,6,2.1,3.8,0.4,1.2,1.7,2.6,1.1,1.4,1.2,2.1,3.3,0.6,0.5,0.6,0.6,2.1,5.6
33.0,13,4.7,10.5,1.4,3.5,3.3,7.0,1.2,1.2,0.8,2.2,3.0,4.0,0.8,0.5,1.5,0.6,12.0
26.0,3,2.0,8.7,1.0,4.3,1.0,4.3,1.3,1.3,0.7,2.7,3.3,7.0,2.3,1.3,3.7,2.7,6.3
27.0,5,4.5,10.7,1.5,4.9,3.0,5.7,2.7,3.1,0.5,3.0,3.5,4.9,0.9,0.8,1.6,2.3,13.2
27.0,5,5.0,11.6,1.7,5.3,3.3,6.4,2.8,3.3,0.5,3.0,3.5,5.6,1.0,0.9,1.8,2.4,14.4
27.0,5,3.6,8.8,1.3,4.3,2.3,4.6,2.5,2.9,0.5,2.9,3.4,3.5,0.6,0.6,1.2,2.2,11.0
23.0,2,6.7,14.5,3.0,6.9,3.7,7.6,1.8,2.0,0.6,3.8,4.4,2.7,1.2,0.4,1.5,2.6,18.2
25.0,7,9.7,20.9,2.7,7.0,7.0,13.9,4.6,5.3,0.7,4.4,5.0,4.8,1.1,0.4,2.4,2.6,26.8
25.0,2,3.0,8.8,3.0,7.4,0.0,1.4,1.0,1.4,0.2,1.0,1.2,2.0,1.0,0.6,1.0,1.8,10.0
21.0,2,4.6,10.8,1.9,5.4,2.7,5.4,1.2,1.4,0.6,3.7,4.3,1.9,1.1,0.6,0.8,2.0,12.3
22.0,2,1.0,2.1,0.2,0.8,0.8,1.3,0.5,0.8,0.1,0.7,0.8,1.4,0.1,0.0,0.5,1.0,2.6
25.0,3,1.4,2.1,0.0,0.0,1.4,2.1,0.3,0.5,0.5,2.3,2.8,0.4,0.5,0.5,0.2,1.1,3.1
26.0,4,3.9,10.7,2.5,7.4,1.4,3.3,1.6,1.8,0.5,1.8,2.3,4.2,0.9,0.2,1.4,1.3,11.9
32.0,9,2.4,4.3,0.3,0.7,2.2,3.6,1.1,1.5,1.6,4.2,5.8,0.7,0.4,0.6,1.0,2.6,6.3
22.0,2,1.3,3.7,1.0,2.6,0.3,1.1,0.2,0.2,0.6,1.3,1.9,0.6,0.2,0.2,0.6,1.4,3.9
22.0,2,0.0,1.5,0.0,1.5,0.0,0.0,0.0,0.0,1.0,0.0,1.0,0.5,0.0,0.0,0.0,0.0,0.0
22.0,2,1.7,4.3,1.3,2.9,0.4,1.4,0.3,0.3,0.4,1.7,2.1,0.6,0.3,0.3,0.7,1.9,5.0
26.0,5,7.1,16.4,1.4,4.7,5.7,11.8,2.8,3.3,0.9,2.3,3.2,2.8,1.1,0.3,1.6,3.3,18.4
25.0,6,7.1,12.5,0.6,2.0,6.5,10.5,4.0,5.4,3.2,8.9,12.1,5.2,1.0,0.4,3.1,3.3,18.9
25.0,6,7.0,12.1,0.7,2.3,6.3,9.9,4.1,5.5,3.3,8.8,12.1,5.0,1.0,0.5,3.0,3.1,18.9
25.0,6,7.5,13.5,0.3,1.1,7.2,12.3,3.7,4.9,3.1,9.3,12.3,5.8,0.9,0.3,3.5,3.8,18.9
25.0,5,9.2,20.5,3.5,9.8,5.7,10.8,4.0,4.7,0.8,3.4,4.2,5.3,1.5,0.2,3.0,2.4,25.9
25.0,4,2.8,8.0,1.8,5.2,1.0,2.8,1.7,2.0,1.0,3.1,4.0,2.8,1.1,0.2,1.7,1.6,9.0
25.0,4,2.3,6.9,1.2,4.4,1.1,2.6,1.4,1.6,1.1,2.5,3.5,1.7,0.6,0.2,1.6,1.5,7.2
25.0,4,3.2,8.7,2.1,5.8,1.0,3.0,1.9,2.2,0.9,3.5,4.4,3.6,1.5,0.2,1.8,1.7,10.3
28.0,6,4.1,8.7,2.2,5.4,1.9,3.2,0.7,1.0,1.5,3.2,4.7,1.9,1.1,0.5,1.0,2.3,11.0
30.0,8,4.2,9.1,2.1,5.0,2.1,4.1,0.8,1.0,0.4,1.9,2.3,1.3,0.3,0.1,0.8,1.5,11.3
31.0,10,2.9,5.6,0.3,1.2,2.6,4.4,1.3,2.0,1.0,6.3,7.3,7.0,1.3,1.1,3.0,3.0,7.5
24.0,4,3.1,5.2,0.1,0.3,3.0,4.9,1.4,1.8,1.8,3.5,5.4,1.2,0.4,0.6,1.1,1.7,7.7
24.0,4,1.7,3.2,0.0,0.2,1.7,3.1,1.2,1.6,1.3,2.7,4.0,1.0,0.3,0.6,0.9,1.2,4.7
24.0,4,6.2,9.6,0.2,0.7,6.0,9.0,1.8,2.3,3.0,5.5,8.5,1.6,0.8,0.5,1.6,2.8,14.5
21.0,1,3.6,8.9,1.7,4.5,1.9,4.4,1.0,1.3,0.1,1.6,1.7,1.8,0.5,0.1,1.2,1.4,9.9
27.0,4,3.7,9.2,2.9,7.9,0.7,1.3,0.6,0.8,0.3,2.3,2.6,1.6,0.5,0.2,0.8,2.5,10.9
36.0,18,2.2,3.7,0.1,0.3,2.1,3.4,1.6,2.4,2.0,4.0,5.9,0.6,0.6,0.6,0.8,1.9,6.2
30.0,8,3.3,4.9,0.2,0.5,3.1,4.4,2.0,2.6,2.1,2.8,4.9,1.2,0.5,0.5,0.8,2.7,8.7
25.0,2,0.7,2.0,0.4,1.4,0.3,0.6,0.3,0.4,0.4,1.4,1.8,0.7,0.3,0.1,0.3,0.9,2.2
29.0,6,1.8,4.9,1.4,4.1,0.4,0.8,0.6,0.7,0.2,1.9,2.1,0.6,0.3,0.2,0.3,1.5,5.6
29.0,6,1.8,5.0,1.4,4.2,0.4,0.8,0.8,0.9,0.2,1.6,1.8,0.5,0.3,0.2,0.4,1.6,5.7
29.0,6,1.8,4.7,1.4,3.9,0.4,0.8,0.4,0.5,0.3,2.3,2.5,0.7,0.3,0.3,0.2,1.4,5.3
32.0,12,0.4,0.5,0.0,0.0,0.4,0.5,0.2,0.5,0.5,1.6,2.1,0.2,0.1,0.3,0.2,1.1,0.9
27.0,8,1.3,3.5,0.1,0.4,1.3,3.1,0.2,0.6,0.4,1.3,1.8,2.0,0.5,0.1,0.9,0.8,3.0
23.0,2,1.3,4.0,0.7,2.6,0.6,1.4,0.2,0.3,0.2,1.4,1.6,0.6,0.4,0.2,0.5,1.1,3.5
23.0,2,1.1,2.6,0.7,2.0,0.4,0.6,0.2,0.2,0.1,1.1,1.2,0.4,0.3,0.1,0.5,0.5,3.1
23.0,2,1.5,4.9,0.7,3.0,0.8,1.9,0.2,0.3,0.2,1.7,1.9,0.7,0.5,0.3,0.5,1.5,3.8
25.0,2,0.0,1.7,0.0,0.0,0.0,1.7,0.0,0.0,2.7,2.3,5.0,0.7,0.3,0.0,1.7,1.3,0.0
25.0,6,0.0,1.0,0.0,0.0,0.0,1.0,1.5,2.0,0.0,0.0,0.0,2.0,0.5,0.0,0.5,0.5,1.5
29.0,11,1.5,2.8,0.1,0.1,1.4,2.6,0.7,0.8,1.7,2.8,4.6,0.2,0.1,0.4,0.6,1.2,3.7
32.0,12,3.6,8.7,0.9,3.0,2.7,5.6,1.6,2.2,0.5,2.9,3.4,4.2,1.3,0.4,2.1,1.6,9.9
33.0,14,4.7,9.9,2.2,5.3,2.5,4.6,1.8,2.4,0.3,1.7,2.0,2.7,0.5,0.3,1.9,1.1,13.4
25.0,3,2.0,4.1,0.7,1.9,1.3,2.2,1.1,1.5,0.5,1.3,1.8,0.6,0.2,0.1,0.5,0.9,5.8
24.0,1,0.5,1.3,0.3,0.5,0.3,0.8,0.5,1.0,0.5,1.3,1.8,0.5,0.0,0.0,0.0,0.5,1.8
29.0,10,5.0,12.1,3.0,7.7,2.0,4.3,1.0,1.4,0.4,2.2,2.6,2.1,1.0,0.3,1.3,2.3,14.1
20.0,1,6.1,12.0,0.3,1.3,5.8,10.7,2.4,3.7,2.1,6.2,8.3,2.5,0.8,1.7,1.9,2.1,15.0
30.0,2,1.6,4.6,0.9,3.0,0.8,1.6,0.9,1.2,0.4,1.4,1.8,3.4,1.0,0.4,1.0,1.9,5.1
22.0,1,0.0,1.0,0.0,0.0,0.0,1.0,0.0,0.0,0.5,0.0,0.5,0.5,0.5,0.0,0.5,0.5,0.0
23.0,4,3.7,9.1,1.6,5.3,2.0,3.8,1.6,2.0,0.4,1.3,1.6,1.0,0.5,0.2,0.7,1.7,10.6
28.0,7,4.0,7.3,0.6,1.7,3.4,5.7,2.0,2.2,1.2,3.3,4.6,1.4,0.9,0.8,0.6,1.6,10.6
23.0,5,1.5,3.8,0.7,1.9,0.9,1.9,0.4,0.4,0.2,1.2,1.4,1.2,0.5,0.1,0.5,1.1,4.1
20.0,1,5.8,12.3,1.2,3.4,4.6,8.9,2.4,2.8,1.1,3.4,4.5,2.9,0.9,0.4,1.5,2.1,15.2
27.0,6,6.8,16.9,3.7,9.9,3.1,7.0,3.0,3.4,0.7,3.8,4.4,6.7,1.7,0.5,2.6,2.5,20.3
24.0,2,1.0,2.4,0.0,0.1,1.0,2.3,0.3,0.8,1.4,2.6,4.0,0.6,0.3,1.0,0.6,2.0,2.3
24.0,5,2.7,7.0,1.1,4.0,1.6,3.0,1.0,1.3,0.3,2.3,2.6,1.9,0.5,0.1,0.7,0.9,7.6
25.0,3,3.1,7.5,1.8,4.8,1.4,2.8,0.6,0.8,0.3,1.5,1.9,3.1,0.9,0.2,1.4,2.3,8.7
28.0,1,1.0,3.5,0.5,3.0,0.5,0.5,1.5,2.5,0.0,1.0,1.0,2.0,1.0,0.5,0.5,2.0,4.0
26.0,2,1.1,2.0,0.3,0.6,0.9,1.4,0.0,0.0,0.1,0.7,0.9,0.7,0.1,0.0,0.3,0.3,2.6
27.0,1,1.3,4.8,0.8,2.0,0.5,2.8,0.0,0.0,0.5,1.3,1.8,2.8,0.8,0.0,0.8,1.8,3.3
35.0,12,1.9,5.0,1.0,3.1,0.9,1.9,0.5,0.7,0.5,1.9,2.4,1.3,0.7,0.4,0.7,1.4,5.2
25.0,3,2.8,7.1,2.1,5.9,0.7,1.2,2.2,2.8,0.5,2.4,2.9,1.0,0.9,0.4,0.6,2.6,10.0
27.0,4,0.9,2.3,0.7,1.8,0.1,0.5,0.2,0.3,0.6,1.8,2.4,0.5,0.3,0.2,0.3,0.5,2.7
27.0,8,3.9,9.1,1.9,5.0,2.0,4.1,1.4,1.6,0.6,1.4,2.0,1.8,1.0,0.1,1.0,1.8,11.1
29.0,6,3.0,4.8,0.6,1.7,2.4,3.2,0.5,0.8,1.0,2.5,3.5,0.9,1.4,0.3,0.6,1.8,7.1
23.0,4,6.4,15.5,3.0,7.8,3.4,7.7,2.5,2.9,0.4,2.4,2.7,2.0,1.7,0.3,1.0,2.1,18.3
35.0,14,2.2,5.1,0.8,2.5,1.4,2.6,1.1,1.1,0.7,2.2,2.9,2.2,0.8,0.1,0.8,1.3,6.2
28.0,2,0.0,1.3,0.0,1.0,0.0,0.3,0.3,0.5,0.0,1.3,1.3,0.0,0.0,0.0,0.3,1.0,0.3
28.0,6,3.2,7.4,2.1,5.1,1.2,2.3,0.7,0.8,0.3,2.3,2.7,1.3,0.4,0.2,0.8,2.5,9.2
23.0,1,2.4,5.2,0.8,2.0,1.6,3.2,1.1,2.3,0.5,1.2,1.6,0.9,0.8,0.2,1.5,1.5,6.6
23.0,1,0.6,1.2,0.2,0.4,0.3,0.8,0.4,1.0,0.4,0.4,0.9,0.0,0.1,0.1,0.4,0.9,1.8
23.0,1,6.5,14.0,2.0,5.5,4.5,8.5,2.5,5.3,0.5,2.8,3.3,3.0,2.5,0.3,4.0,2.8,17.5
27.0,9,10.3,18.6,1.1,3.6,9.2,15.0,8.3,11.4,2.0,9.6,11.6,5.8,1.1,1.4,3.3,3.2,29.9
22.0,3,2.6,5.0,0.5,1.6,2.2,3.4,1.3,1.9,1.6,2.0,3.5,1.1,0.4,0.8,0.9,2.1,7.0
35.0,14,2.7,7.2,0.8,3.0,2.0,4.2,1.3,1.6,0.6,2.5,3.1,4.1,0.9,0.2,1.6,2.1,7.5
35.0,14,2.6,6.8,0.8,2.8,1.8,4.0,2.0,2.0,0.4,2.4,2.8,1.8,1.0,0.2,0.2,1.6,8.0
35.0,14,2.8,7.3,0.8,3.1,2.0,4.3,1.1,1.4,0.7,2.5,3.2,4.8,0.9,0.2,2.1,2.3,7.3
31.0,12,5.8,12.6,1.8,4.5,4.0,8.1,2.6,3.0,0.8,3.8,4.6,3.6,1.0,0.4,1.7,1.7,15.9
32.0,9,1.2,2.5,0.7,1.5,0.5,1.0,0.4,0.6,0.7,2.0,2.8,0.8,0.3,0.3,0.5,1.2,3.5
23.0,3,2.7,5.6,1.4,3.4,1.3,2.3,1.1,1.2,0.8,2.7,3.6,1.0,0.5,0.7,0.8,2.4,7.8
26.0,4,3.9,8.6,2.4,5.9,1.5,2.7,1.0,1.1,0.5,2.9,3.4,1.5,0.7,0.3,0.7,1.5,11.1
20.0,1,1.7,4.0,0.4,1.3,1.3,2.7,0.9,1.4,0.8,2.0,2.8,0.7,0.5,0.5,0.8,1.9,4.7
31.0,10,2.3,4.1,0.0,0.0,2.3,4.1,0.9,1.6,2.1,2.4,4.6,1.6,0.6,0.7,0.9,1.7,5.4
31.0,10,3.3,5.5,0.0,0.0,3.3,5.5,0.8,1.8,1.5,4.5,6.0,4.0,1.0,1.5,1.8,2.3,7.3
31.0,10,2.0,4.0,0.0,0.0,2.0,4.0,0.0,0.0,3.5,1.5,5.0,0.5,0.5,0.5,1.0,1.0,4.0
31.0,10,2.2,4.4,0.0,0.0,2.2,4.4,1.0,1.8,2.2,2.0,4.2,0.4,0.6,0.4,0.6,1.4,5.4
31.0,10,1.3,1.7,0.0,0.0,1.3,1.7,1.3,2.3,2.0,1.0,3.0,1.0,0.0,0.3,0.0,2.0,4.0
23.0,4,4.5,9.1,0.4,1.6,4.1,7.5,1.6,2.4,1.2,3.6,4.8,1.3,1.2,0.3,1.0,2.5,11.0
29.0,10,5.1,10.8,1.8,4.7,3.2,6.2,4.4,5.4,1.1,4.5,5.6,2.4,0.7,0.2,1.5,1.2,16.4
32.0,10,3.3,5.1,0.0,0.0,3.3,5.1,1.6,2.6,2.6,5.0,7.6,0.4,0.3,1.6,0.8,2.8,8.2
25.0,1,2.3,4.8,1.4,3.3,0.9,1.5,0.4,0.5,0.1,2.5,2.6,2.5,0.6,0.1,1.1,1.6,6.3
25.0,2,0.8,2.4,0.5,1.5,0.4,0.9,0.1,0.3,0.5,0.8,1.4,0.3,0.1,0.2,0.2,0.7,2.3
23.0,1,3.5,7.4,0.7,2.2,2.8,5.2,1.8,2.1,1.3,2.5,3.8,2.1,1.7,0.8,1.3,3.1,9.5
23.0,3,1.9,4.5,0.6,2.1,1.3,2.4,0.5,0.8,0.5,1.2,1.7,0.9,0.2,0.1,0.4,1.1,5.0
22.0,2,3.6,9.3,1.8,5.1,1.9,4.2,2.3,2.6,0.4,2.8,3.2,3.5,0.7,0.0,1.3,2.1,11.3
22.0,4,0.2,0.9,0.1,0.3,0.1,0.6,0.3,0.5,0.3,0.2,0.5,0.3,0.5,0.1,0.1,0.7,0.8
21.0,2,3.1,6.4,0.8,2.3,2.3,4.1,1.8,2.3,1.1,1.9,3.0,1.8,0.8,0.3,0.9,2.4,8.8
23.0,4,3.4,5.4,0.2,0.4,3.2,4.9,1.3,1.9,1.7,3.2,4.9,2.4,0.7,1.1,1.2,2.5,8.3
20.0,1,3.2,5.7,0.1,0.4,3.1,5.3,1.7,2.4,1.7,2.5,4.1,0.3,0.7,1.4,1.1,2.6,8.3
22.0,2,1.1,3.2,0.8,2.5,0.3,0.8,0.5,0.6,0.1,0.9,1.0,0.6,0.3,0.1,0.3,0.9,3.6
23.0,1,2.2,4.7,1.4,3.4,0.7,1.4,0.6,0.7,0.8,2.2,3.0,1.1,0.7,0.4,0.8,1.9,6.4
23.0,3,3.7,7.2,1.0,2.2,2.7,5.0,1.7,2.6,1.7,3.2,4.8,1.6,0.8,0.8,1.0,2.4,10.1
20.0,2,3.5,6.9,0.2,0.6,3.3,6.3,1.0,1.5,3.2,5.5,8.7,1.2,0.3,1.1,1.2,3.0,8.3
32.0,11,3.0,7.6,1.3,3.8,1.8,3.8,1.0,1.2,0.2,1.1,1.3,1.5,0.3,0.2,0.7,1.5,8.4
32.0,11,3.0,9.8,1.3,5.5,1.8,4.3,2.0,2.8,0.3,1.8,2.0,1.5,0.0,0.5,1.3,3.0,9.3
32.0,11,3.0,8.0,0.0,3.0,3.0,5.0,0.0,0.0,0.0,0.0,0.0,4.0,0.0,0.0,0.0,0.0,6.0
32.0,11,3.1,7.1,1.4,3.4,1.7,3.6,0.8,0.9,0.2,1.1,1.2,1.4,0.4,0.2,0.6,1.3,8.3
20.0,1,0.6,2.2,0.3,1.3,0.3,0.8,0.2,0.5,0.3,0.8,1.0,0.3,0.3,0.2,0.3,0.3,1.7
33.0,12,2.8,6.6,0.4,1.0,2.5,5.6,0.2,0.4,0.4,1.8,2.2,3.8,0.7,0.4,1.2,1.2,6.3
33.0,12,2.0,5.0,0.3,0.7,1.7,4.3,0.3,0.5,0.3,1.2,1.5,2.6,0.5,0.3,1.0,0.9,4.5
33.0,12,4.0,8.8,0.5,1.5,3.5,7.3,0.1,0.2,0.5,2.5,3.0,5.2,1.0,0.5,1.5,1.6,8.6
27.0,1,0.9,2.3,0.4,1.3,0.5,1.0,0.2,0.3,0.6,0.6,1.2,0.3,0.4,0.1,0.3,1.1,2.4
24.0,6,4.1,6.5,0.0,0.0,4.1,6.5,2.2,3.0,2.9,5.6,8.5,1.6,0.5,1.0,1.5,2.7,10.3
19.0,1,0.7,1.7,0.2,0.8,0.5,0.8,0.4,0.6,0.3,1.0,1.3,0.6,0.2,0.3,0.3,0.8,2.0
22.0,3,10.2,20.6,1.5,4.5,8.6,16.2,5.5,7.3,1.4,4.4,5.7,6.7,1.2,0.4,3.4,1.5,27.4
31.0,8,2.4,4.9,0.5,1.9,1.9,3.0,1.2,1.4,1.2,3.0,4.2,0.9,0.6,0.4,0.9,2.4,6.4
24.0,1,0.0,0.5,0.0,0.3,0.0,0.3,0.0,0.0,0.0,0.0,0.0,0.5,0.0,0.0,0.0,0.3,0.0
34.0,14,3.9,6.2,0.0,0.1,3.9,6.1,1.4,2.0,2.2,4.5,6.7,0.6,0.3,1.1,1.3,2.4,9.2
26.0,8,1.5,3.2,0.7,1.3,0.8,1.8,0.8,0.8,0.4,1.9,2.3,0.5,0.3,0.1,0.7,1.1,4.4
21.0,2,3.6,7.9,1.1,3.6,2.5,4.3,0.8,1.0,1.1,3.1,4.2,1.1,0.7,0.8,1.1,3.2,9.2
19.0,1,0.5,0.5,0.0,0.0,0.5,0.5,0.0,0.0,0.5,0.5,1.0,0.0,0.0,1.0,0.5,0.0,1.0
31.0,10,3.2,8.1,1.9,5.4,1.3,2.7,1.1,1.3,0.4,4.8,5.3,1.9,1.4,0.4,0.8,2.6,9.4
26.0,2,4.7,9.3,0.8,2.6,3.8,6.8,1.7,2.4,1.7,3.7,5.4,2.8,0.9,0.5,1.8,3.7,11.8
20.0,2,1.3,3.1,0.3,0.9,1.0,2.1,0.4,0.7,0.2,0.5,0.7,0.4,0.1,0.1,0.3,0.5,3.2
24.0,1,0.0,0.0,0.0,0.0,0.0,0.0,0.0,0.0,0.0,0.0,0.0,0.0,0.0,0.0,0.0,0.0,0.0
27.0,6,0.9,2.1,0.2,1.0,0.6,1.1,0.4,0.5,0.2,0.9,1.1,0.3,0.2,0.1,0.3,0.4,2.4
26.0,6,6.0,9.8,0.0,0.0,6.0,9.7,1.4,2.8,3.9,5.5,9.3,2.8,0.7,1.7,1.6,3.1,13.5
25.0,4,6.4,12.8,1.2,3.2,5.2,9.6,2.3,2.7,0.5,3.4,3.9,4.8,0.8,0.0,1.6,1.9,16.3
19.0,1,6.1,14.2,2.3,6.8,3.7,7.4,2.8,3.5,0.5,2.9,3.4,2.6,0.7,0.3,2.0,1.5,17.3
20.0,1,1.0,1.9,0.1,0.6,0.9,1.3,0.2,0.3,0.1,1.1,1.2,0.1,0.1,0.1,0.4,0.4,2.4
24.0,3,2.2,4.6,0.7,2.0,1.5,2.7,1.0,1.3,0.7,2.4,3.1,1.1,0.5,0.4,0.7,1.7,6.2
21.0,2,3.5,6.9,0.8,2.4,2.7,4.5,1.5,2.0,2.0,4.0,6.0,0.5,0.3,0.8,0.8,1.9,9.2
21.0,2,2.2,4.7,0.3,1.3,1.9,3.4,1.4,1.8,1.9,2.9,4.8,0.2,0.2,0.6,0.8,1.8,6.0
21.0,2,5.1,9.7,1.4,3.8,3.7,5.9,1.7,2.3,2.1,5.5,7.6,0.8,0.4,1.0,0.9,2.0,13.4
20.0,1,4.1,11.4,0.9,4.1,3.3,7.3,2.6,3.4,0.5,3.0,3.6,4.4,1.2,0.4,3.0,3.0,11.8
21.0,1,1.6,4.5,0.5,1.6,1.0,3.0,0.9,1.0,0.7,1.0,1.7,0.8,0.2,0.0,0.5,0.9,4.6
31.0,8,1.6,3.4,0.4,1.1,1.1,2.3,0.6,0.7,0.7,1.0,1.7,0.4,0.3,0.3,0.3,0.7,4.1
31.0,8,1.0,3.5,0.5,1.0,0.5,2.5,0.0,0.0,1.0,1.5,2.5,0.0,0.5,0.5,0.0,0.0,2.5
31.0,8,3.5,5.5,1.0,2.0,2.5,3.5,2.0,2.0,1.0,1.5,2.5,0.0,0.5,0.5,0.5,2.0,10.0
31.0,8,0.7,2.0,0.0,0.7,0.7,1.3,0.0,0.3,0.3,0.3,0.7,1.0,0.0,0.0,0.3,0.3,1.3
32.0,13,6.3,15.3,2.3,6.9,4.0,8.4,7.2,8.2,0.8,6.8,7.7,10.3,1.3,0.6,4.4,2.4,22.0
32.0,13,6.6,16.0,2.3,7.0,4.3,9.1,6.9,8.0,1.0,7.0,8.0,10.2,1.3,0.7,4.8,2.4,22.5
32.0,13,5.5,13.6,2.2,6.7,3.3,6.9,7.9,8.9,0.6,6.5,7.1,10.5,1.2,0.2,3.4,2.3,21.0
34.0,13,2.3,5.0,0.4,1.4,2.0,3.6,0.5,0.9,0.8,2.6,3.5,2.1,0.5,0.5,0.8,2.6,5.5
24.0,1,1.4,3.8,1.0,3.0,0.4,0.8,0.1,0.2,0.5,2.0,2.5,0.5,0.0,0.5,0.4,0.9,3.8
21.0,1,1.5,3.6,0.7,2.1,0.8,1.5,0.3,0.4,0.1,1.0,1.1,1.5,0.4,0.2,0.8,1.1,3.8
24.0,3,2.8,5.2,1.0,2.4,1.8,2.8,0.8,0.8,0.4,0.0,0.4,2.8,0.8,0.2,0.4,1.0,7.4
22.0,4,5.5,13.3,1.6,5.1,3.9,8.1,3.6,4.4,1.5,4.3,5.8,1.1,0.9,2.3,1.7,3.5,16.3
22.0,4,2.9,4.9,0.0,0.2,2.8,4.7,1.2,1.8,2.9,5.5,8.4,1.3,1.3,0.6,1.0,2.4,6.9
23.0,5,6.6,9.7,0.0,0.2,6.6,9.6,2.9,4.2,3.4,7.3,10.8,1.6,0.8,1.3,1.7,1.7,16.1
22.0,3,1.4,3.6,0.3,1.3,1.1,2.4,0.4,0.9,0.4,0.9,1.3,0.9,0.5,0.1,0.5,1.1,3.5
24.0,1,0.3,0.7,0.0,0.3,0.3,0.3,0.0,0.0,0.3,0.7,1.0,0.3,0.0,0.0,0.0,0.7,0.7
23.0,1,0.0,0.0,0.0,0.0,0.0,0.0,0.0,0.0,0.0,1.0,1.0,0.0,1.0,0.0,0.0,1.0,0.0
28.0,3,2.7,5.0,0.6,1.6,2.2,3.4,1.2,1.5,1.4,2.8,4.2,0.9,1.0,0.5,0.5,2.0,7.2
22.0,1,1.1,3.5,0.5,1.6,0.6,1.9,0.3,0.4,0.3,1.1,1.4,0.9,0.4,0.2,0.6,0.7,3.0
22.0,1,0.8,3.3,0.3,1.4,0.5,1.9,0.4,0.5,0.3,1.2,1.5,1.1,0.3,0.2,0.7,0.8,2.4
22.0,1,2.0,4.3,1.0,2.3,1.0,2.0,0.0,0.0,0.3,1.0,1.3,0.5,0.5,0.3,0.5,0.3,5.0
21.0,3,3.5,5.7,0.3,0.8,3.2,4.9,2.1,2.7,1.6,2.9,4.5,0.6,0.5,0.8,0.8,2.2,9.3
23.0,1,0.0,0.8,0.0,0.5,0.0,0.3,0.0,0.0,0.3,0.8,1.0,0.3,0.3,0.3,0.3,0.3,0.0
21.0,2,1.0,2.6,0.3,1.2,0.7,1.4,0.4,0.6,0.1,0.8,0.9,0.4,0.2,0.2,0.4,0.5,2.7
25.0,6,8.7,18.4,2.5,7.0,6.2,11.4,3.7,4.8,0.8,5.3,6.1,3.5,1.1,0.3,2.7,2.5,23.6
22.0,3,6.3,12.9,1.3,3.6,5.0,9.3,0.9,2.0,4.3,7.7,12.0,2.4,0.9,0.7,1.1,2.0,14.7
26.0,3,0.0,2.0,0.0,0.7,0.0,1.3,0.7,1.3,0.0,0.7,0.7,0.7,0.0,0.0,0.3,0.7,0.7
22.0,3,3.2,6.7,1.0,2.6,2.1,4.1,1.2,1.5,0.4,1.6,2.0,2.1,0.4,0.2,0.6,1.2,8.5
27.0,1,0.0,3.0,0.0,2.0,0.0,1.0,0.0,0.0,0.0,1.0,1.0,1.0,0.0,0.0,1.0,2.0,0.0
23.0,5,9.3,20.6,3.0,8.6,6.3,12.0,5.3,6.2,1.1,6.9,8.0,4.4,1.0,0.6,2.9,2.3,26.9
24.0,1,0.9,2.9,0.1,1.0,0.8,1.9,0.2,0.2,0.9,1.1,2.0,1.1,0.6,0.1,0.6,0.6,2.1
24.0,1,0.8,1.5,0.0,0.3,0.8,1.3,0.0,0.0,0.3,1.5,1.8,0.8,0.0,0.3,0.3,0.5,1.5
24.0,1,0.0,1.0,0.0,1.0,0.0,0.0,0.0,0.0,0.0,0.0,0.0,0.0,0.0,0.0,0.0,0.0,0.0
24.0,1,1.3,4.8,0.3,1.8,1.0,3.0,0.5,0.5,1.8,1.0,2.8,1.8,1.3,0.0,1.0,0.8,3.3
35.0,14,3.7,7.1,0.7,2.2,3.0,4.8,2.2,2.6,0.5,2.5,3.1,1.3,0.4,0.4,0.9,2.0,10.3
26.0,2,1.0,1.5,0.0,0.0,1.0,1.5,0.0,0.0,1.0,0.5,1.5,0.0,0.5,0.0,0.0,1.0,2.0
27.0,8,6.3,14.9,1.9,5.4,4.4,9.5,4.6,5.5,0.6,3.5,4.1,2.4,0.9,1.0,1.8,2.3,19.2
21.0,1,2.7,6.6,1.2,3.4,1.6,3.2,0.8,1.1,1.5,4.1,5.6,1.0,0.6,0.3,0.8,1.5,7.5
29.0,10,2.4,6.2,1.0,3.0,1.4,3.2,1.6,1.9,0.5,2.3,2.8,1.4,0.6,0.4,0.7,1.1,7.3
29.0,10,2.2,5.8,1.0,3.0,1.2,2.8,1.7,2.1,0.4,2.0,2.4,1.3,0.6,0.4,0.6,1.1,7.1
29.0,10,2.8,7.0,0.9,3.1,1.9,3.9,1.3,1.5,0.6,2.9,3.5,1.8,0.5,0.5,0.8,0.9,7.9
23.0,1,1.0,1.3,0.0,0.0,1.0,1.3,0.3,0.7,1.5,2.6,4.1,0.5,0.3,0.5,0.5,1.6,2.2
26.0,4,1.5,3.8,1.0,2.6,0.5,1.3,0.2,0.3,0.2,1.5,1.7,1.5,0.4,0.2,0.5,1.0,4.2
26.0,4,1.3,3.8,0.9,2.8,0.3,1.0,0.2,0.2,0.2,1.3,1.5,1.0,0.3,0.2,0.6,1.0,3.6
26.0,4,2.0,4.0,1.2,2.2,0.8,1.8,0.4,0.4,0.3,1.9,2.2,2.5,0.5,0.2,0.4,1.1,5.6
32.0,11,7.0,14.5,0.5,2.0,6.5,12.5,6.9,8.0,1.8,4.1,5.9,5.5,1.6,0.5,2.1,1.5,21.4
26.0,1,1.9,3.8,0.5,1.6,1.3,2.1,0.6,0.8,1.2,1.4,2.6,0.8,0.2,0.3,0.6,1.0,4.9
30.0,8,4.0,8.9,2.9,6.3,1.1,2.6,0.4,0.4,0.4,3.6,4.0,1.0,0.5,0.1,1.1,2.2,11.3
34.0,8,2.6,6.3,1.7,5.0,0.8,1.3,0.4,0.5,0.3,2.6,2.9,3.5,0.5,0.1,1.0,1.8,7.2
40.0,18,1.0,1.0,0.0,0.0,1.0,1.0,0.0,0.0,0.0,0.0,0.0,0.0,0.0,0.0,0.0,0.0,2.0
22.0,1,0.7,1.9,0.5,1.5,0.2,0.4,0.2,0.4,0.1,0.3,0.5,0.3,0.1,0.1,0.1,0.5,2.1
21.0,1,0.1,0.9,0.0,0.1,0.1,0.7,0.0,0.0,0.1,0.3,0.4,0.6,0.0,0.0,0.0,0.0,0.3
27.0,6,9.8,19.6,1.4,3.7,8.4,15.9,9.6,11.8,2.1,9.6,11.7,4.2,1.1,1.5,3.1,2.7,30.6
24.0,5,6.3,11.9,1.2,3.3,5.1,8.7,2.5,3.1,1.7,6.1,7.8,1.8,0.6,1.0,1.1,3.0,16.2
25.0,3,1.9,3.6,0.7,1.8,1.2,1.9,0.4,0.7,1.2,3.4,4.6,1.5,0.6,0.3,0.4,1.3,4.8
24.0,1,0.0,0.3,0.0,0.0,0.0,0.3,0.0,0.7,0.0,0.7,0.7,0.3,0.3,0.0,0.0,0.3,0.0
29.0,10,6.9,12.7,0.8,2.1,6.1,10.5,3.2,3.9,3.1,8.3,11.4,2.6,0.6,0.8,2.4,3.3,17.8
19.0,1,3.4,6.6,0.7,2.1,2.7,4.4,1.9,2.7,0.8,2.6,3.3,0.9,0.4,0.3,1.1,2.1,9.3
27.0,5,0.0,0.0,0.0,0.0,0.0,0.0,0.0,0.0,1.0,0.0,1.0,0.0,1.0,0.0,0.0,2.0,0.0
29.0,8,5.9,14.1,2.4,7.6,3.5,6.5,1.8,2.2,0.8,2.6,3.5,2.5,0.8,0.2,1.6,1.9,16.0
23.0,1,0.0,1.5,0.0,0.5,0.0,1.0,0.0,0.0,0.0,0.5,0.5,0.0,0.0,0.0,0.0,0.5,0.0
25.0,3,1.4,3.2,0.4,1.4,1.0,1.9,0.5,0.6,0.4,1.2,1.5,2.9,0.9,0.2,0.6,0.9,3.8
23.0,2,3.0,7.5,1.3,3.7,1.7,3.8,0.6,0.7,0.6,3.0,3.6,1.0,0.4,0.3,0.9,1.3,7.9
22.0,3,6.2,13.9,2.8,7.6,3.5,6.3,3.2,3.5,0.4,3.0,3.4,4.0,0.8,0.3,2.5,2.7,18.5
23.0,1,0.3,2.8,0.3,1.5,0.0,1.3,0.5,0.5,0.5,1.5,2.0,0.0,0.3,0.0,0.3,0.0,1.3
23.0,1,2.4,5.4,0.6,2.0,1.8,3.4,0.7,1.0,0.5,1.4,1.9,2.8,1.3,0.1,0.7,1.4,6.1
20.0,1,3.0,6.8,0.8,2.6,2.3,4.2,1.1,1.5,0.7,1.8,2.5,2.0,0.9,0.2,1.5,1.3,7.9
19.0,1,5.2,12.4,1.0,3.9,4.2,8.5,1.0,1.5,1.8,6.0,7.8,6.4,0.9,0.4,3.2,1.6,12.5
21.0,2,1.9,3.8,0.4,1.2,1.5,2.7,0.5,0.7,0.8,1.6,2.4,1.2,0.7,0.2,0.7,1.7,4.8
26.0,5,5.3,10.5,1.4,3.9,4.0,6.6,3.0,3.9,1.1,6.0,7.2,4.1,1.1,0.2,2.1,2.8,14.9
26.0,5,4.8,9.4,1.0,3.2,3.7,6.2,2.8,3.8,1.3,6.5,7.8,4.1,1.1,0.3,2.0,2.9,13.4
26.0,5,7.1,14.1,2.4,6.4,4.7,7.7,3.4,4.4,0.7,4.7,5.4,4.3,1.2,0.2,2.5,2.5,19.9
24.0,5,2.4,5.9,0.6,2.5,1.7,3.3,1.1,1.5,0.4,2.4,2.8,1.1,0.5,0.4,0.9,1.7,6.4
24.0,5,2.6,6.4,0.8,2.9,1.9,3.5,1.0,1.4,0.4,2.7,3.2,1.3,0.5,0.5,1.0,1.8,7.1
24.0,5,1.4,4.1,0.3,1.4,1.2,2.7,1.3,1.8,0.3,1.2,1.5,0.4,0.4,0.3,0.8,1.4,4.3
23.0,4,0.9,2.1,0.3,1.0,0.6,1.2,0.7,1.0,0.6,0.8,1.4,0.5,0.5,0.2,0.5,1.1,2.7
28.0,7,3.6,8.2,1.6,3.8,2.0,4.4,1.5,1.7,0.6,2.2,2.8,1.8,0.9,0.4,1.0,1.8,10.2
28.0,7,3.5,7.8,1.4,3.5,2.0,4.3,1.4,1.6,0.6,2.3,2.8,1.5,0.8,0.5,0.9,1.9,9.7
28.0,7,3.9,9.1,1.9,4.3,2.0,4.8,1.7,1.8,0.8,2.1,2.9,2.3,1.0,0.3,1.3,1.6,11.4
19.0,1,2.0,5.4,0.8,2.7,1.2,2.7,0.9,1.2,0.6,1.6,2.3,1.6,0.4,0.5,1.1,1.6,5.8
31.0,13,7.1,14.2,2.0,4.8,5.2,9.4,2.0,2.7,1.0,3.5,4.5,6.8,1.6,0.4,2.7,2.0,18.3
28.0,3,1.6,3.2,0.4,1.2,1.2,2.0,0.5,1.0,0.4,2.0,2.4,1.7,0.7,0.2,0.9,1.6,4.1
26.0,6,1.1,2.7,0.6,1.7,0.5,0.9,0.5,0.9,0.7,1.8,2.5,0.5,0.4,0.3,0.4,0.6,3.3
26.0,6,0.3,1.5,0.2,1.0,0.1,0.5,0.3,0.5,0.5,0.9,1.4,0.2,0.2,0.1,0.3,0.4,1.1
26.0,6,0.4,1.2,0.0,0.6,0.4,0.6,0.6,0.8,0.8,2.2,3.0,0.6,0.2,0.2,0.4,0.0,1.4
26.0,6,2.2,4.3,1.2,2.8,0.9,1.5,0.6,1.2,0.9,2.6,3.5,0.8,0.5,0.4,0.5,1.1,6.2
27.0,8,7.1,17.3,1.7,5.4,5.4,11.9,4.2,5.6,1.7,8.2,9.9,5.1,0.7,0.5,3.4,2.8,20.1
28.0,6,2.3,5.9,0.9,3.7,1.3,2.3,0.9,1.2,0.3,2.6,2.9,2.1,0.5,0.4,0.5,1.4,6.4
28.0,6,1.3,2.7,0.7,2.0,0.7,0.7,1.0,1.3,0.0,2.0,2.0,2.0,0.3,0.0,0.7,1.3,4.3
28.0,6,2.5,6.7,1.0,4.1,1.5,2.6,0.9,1.2,0.3,2.8,3.1,2.1,0.5,0.5,0.5,1.4,6.8
20.0,1,0.9,1.9,0.3,0.8,0.6,1.1,0.3,0.3,1.0,1.0,2.0,0.3,0.2,0.1,0.2,0.9,2.3
32.0,9,3.5,8.9,2.4,6.5,1.1,2.4,0.7,0.8,0.4,2.2,2.6,1.7,0.8,0.4,0.9,2.1,10.1
32.0,9,3.9,9.3,2.6,6.9,1.3,2.5,0.7,0.8,0.4,2.4,2.8,1.8,0.7,0.4,1.0,2.1,11.0
32.0,9,2.8,8.2,2.0,5.8,0.8,2.3,0.6,0.8,0.4,1.8,2.2,1.5,0.8,0.6,0.8,2.0,8.3
26.0,5,0.7,2.1,0.4,1.3,0.3,0.9,0.3,0.3,0.1,0.9,1.0,0.3,0.0,0.0,0.1,0.4,2.1
26.0,5,0.0,1.0,0.0,0.0,0.0,1.0,2.0,2.0,0.0,0.0,0.0,0.0,0.0,0.0,0.0,0.0,2.0
26.0,5,0.8,2.3,0.5,1.5,0.3,0.8,0.0,0.0,0.2,1.0,1.2,0.3,0.0,0.0,0.2,0.5,2.2
24.0,3,1.1,3.7,0.7,2.4,0.4,1.3,0.2,0.3,0.2,0.7,0.8,1.3,0.4,0.0,0.7,1.1,3.1
24.0,3,1.1,3.4,0.6,2.2,0.5,1.2,0.1,0.1,0.1,0.6,0.8,1.2,0.5,0.0,0.6,1.0,2.8
24.0,3,0.3,2.7,0.0,1.0,0.3,1.7,0.0,0.0,0.0,0.3,0.3,0.7,0.0,0.0,0.3,0.7,0.7
24.0,3,1.8,5.6,1.6,4.2,0.2,1.4,0.4,1.2,0.4,1.0,1.4,1.8,0.2,0.2,1.0,1.6,5.6
25.0,7,2.3,5.4,0.3,1.4,2.0,4.0,0.8,1.4,1.0,3.2,4.2,1.8,0.7,0.5,1.0,1.4,5.7
25.0,7,1.7,3.8,0.1,0.8,1.6,3.0,0.7,1.1,0.8,2.8,3.6,1.4,0.6,0.5,1.0,1.2,4.2
25.0,7,4.3,10.5,0.9,3.4,3.4,7.2,1.3,2.3,1.8,4.5,6.3,2.9,1.3,0.6,1.1,1.9,10.7
27.0,8,5.7,10.7,0.3,1.0,5.5,9.7,3.3,4.8,3.0,8.1,11.1,2.8,1.1,0.6,2.6,3.4,15.0
24.0,3,1.0,1.5,0.5,1.0,0.5,0.5,0.0,0.0,1.0,1.0,2.0,0.5,0.0,0.0,0.0,1.5,2.5
24.0,3,2.0,3.0,1.0,2.0,1.0,1.0,0.0,0.0,2.0,2.0,4.0,1.0,0.0,0.0,0.0,3.0,5.0
24.0,3,0.0,0.0,0.0,0.0,0.0,0.0,0.0,0.0,0.0,0.0,0.0,0.0,0.0,0.0,0.0,0.0,0.0
22.0,3,1.4,3.3,0.4,1.2,1.0,2.0,0.4,0.5,0.5,1.4,2.0,0.7,0.2,0.3,0.2,1.2,3.7
21.0,1,0.4,0.7,0.0,0.1,0.4,0.6,0.1,0.4,0.1,0.4,0.5,0.2,0.0,0.1,0.3,0.4,1.0
26.0,7,8.7,16.4,2.0,4.9,6.6,11.5,5.2,6.3,2.6,7.2,9.8,3.6,1.0,1.1,3.1,3.6,24.6
28.0,1,2.2,5.9,0.8,2.8,1.3,3.1,0.5,0.5,0.3,1.2,1.4,1.9,0.4,0.1,1.0,1.6,5.6
26.0,4,2.3,4.5,0.3,0.9,2.0,3.5,0.8,1.0,1.1,2.9,3.9,0.7,0.5,0.2,0.8,1.0,5.7
26.0,3,2.3,5.7,0.7,2.5,1.6,3.2,0.3,0.4,0.6,1.3,1.8,0.7,0.4,0.3,0.5,1.2,5.7
26.0,3,2.6,6.2,0.8,2.7,1.8,3.5,0.3,0.5,0.6,1.4,2.0,0.8,0.5,0.3,0.5,1.3,6.3
26.0,3,0.0,1.0,0.0,0.3,0.0,0.7,0.0,0.0,0.3,0.3,0.7,0.0,0.0,0.0,0.0,0.0,0.0
22.0,3,6.3,13.5,2.1,5.3,4.2,8.2,2.4,3.1,1.1,5.0,6.1,2.1,0.8,0.2,1.2,2.0,17.0
26.0,2,1.1,3.6,0.7,2.3,0.4,1.3,0.2,0.4,0.5,0.9,1.5,0.6,0.4,0.0,0.5,0.9,3.1
30.0,9,3.2,7.2,1.0,3.0,2.2,4.2,1.7,2.2,1.4,3.1,4.4,2.8,0.8,0.5,1.5,2.5,9.1
26.0,7,5.4,12.3,2.5,7.3,2.9,5.0,1.7,2.5,1.0,2.9,4.0,1.1,1.0,0.4,0.9,2.5,15.0
31.0,11,4.0,10.0,2.0,5.4,2.1,4.6,1.6,1.9,0.4,2.6,3.0,3.5,0.7,0.2,1.3,1.0,11.6
27.0,4,3.0,6.5,0.8,2.5,2.1,4.0,0.6,1.1,1.5,3.0,4.5,2.2,0.9,0.2,0.9,1.7,7.4
32.0,10,1.2,3.6,0.7,2.1,0.4,1.5,0.3,0.4,0.3,1.4,1.8,0.9,0.6,0.2,0.5,1.8,3.4
28.0,9,4.7,10.8,2.1,5.3,2.6,5.5,1.8,2.0,0.5,2.9,3.4,1.9,1.1,0.3,1.3,1.8,13.2
21.0,2,3.5,6.6,0.8,2.1,2.8,4.5,1.0,1.6,1.0,2.7,3.8,1.3,0.4,0.5,0.8,1.4,8.8
19.0,1,2.6,7.4,0.9,2.7,1.7,4.6,1.1,1.4,0.6,1.5,2.2,2.1,0.8,0.3,1.2,1.9,7.2
19.0,1,1.1,3.4,0.2,0.7,0.9,2.7,1.1,1.4,0.4,1.0,1.4,0.9,0.5,0.1,0.5,1.4,3.5
19.0,1,3.6,10.0,1.4,4.0,2.2,6.0,1.1,1.4,0.8,1.9,2.7,2.9,1.0,0.5,1.8,2.2,9.7
21.0,1,2.3,5.6,1.0,2.8,1.3,2.7,0.3,0.4,0.9,2.7,3.6,0.6,0.6,0.5,0.9,1.8,5.9
33.0,14,10.5,20.3,2.1,5.5,8.4,14.8,6.8,7.4,0.5,6.9,7.4,6.4,0.9,0.9,3.5,2.1,29.9
23.0,4,4.7,10.3,2.2,5.6,2.5,4.7,0.6,0.7,0.4,3.0,3.4,2.7,0.7,0.4,1.2,2.5,12.1
22.0,4,1.0,2.8,0.5,1.8,0.5,1.0,0.5,0.7,0.5,1.0,1.5,0.3,0.1,0.1,0.2,0.6,3.1
22.0,4,1.2,3.1,0.8,2.2,0.4,0.9,0.5,0.8,0.6,1.1,1.7,0.2,0.2,0.1,0.4,0.4,3.6
22.0,4,0.9,2.6,0.3,1.5,0.6,1.1,0.5,0.7,0.4,0.9,1.3,0.4,0.1,0.1,0.1,0.8,2.7
33.0,14,4.4,10.3,2.5,6.4,1.9,3.8,2.2,2.7,1.2,6.1,7.2,2.2,0.4,0.2,1.3,1.4,13.6
29.0,1,0.6,1.9,0.3,1.1,0.4,0.8,0.1,0.2,0.1,0.4,0.5,1.3,0.1,0.0,0.3,0.5,1.6
21.0,3,5.5,13.2,2.5,6.8,3.0,6.5,2.0,3.2,0.7,3.7,4.4,6.2,1.1,0.4,3.1,2.6,15.6
25.0,7,2.5,4.4,0.0,0.0,2.5,4.4,0.9,1.5,2.5,4.7,7.3,2.0,0.6,0.6,0.8,2.6,6.0
29.0,5,1.8,3.6,0.0,0.3,1.8,3.4,1.0,1.3,2.2,2.1,4.3,1.0,0.5,0.5,0.5,1.9,4.5
30.0,10,6.8,15.5,2.5,6.6,4.4,8.9,3.9,4.4,0.6,4.8,5.4,5.4,1.2,0.3,2.9,2.4,20.1
20.0,2,2.7,7.0,0.7,2.5,2.0,4.4,0.9,1.1,0.5,2.6,3.2,4.2,1.2,0.5,1.7,2.8,6.9
23.0,2,1.2,3.5,0.8,2.4,0.4,1.1,0.1,0.2,0.6,1.1,1.7,0.6,0.6,0.4,0.4,1.6,3.3
20.0,2,2.5,6.1,0.5,2.4,1.9,3.7,0.4,0.5,0.4,1.3,1.6,2.0,0.5,0.0,1.1,0.7,5.9
31.0,9,7.7,17.9,3.6,9.3,4.1,8.7,1.4,1.6,0.5,3.4,3.9,2.8,0.5,0.5,1.3,1.7,20.4
27.0,6,3.1,7.3,0.1,0.8,3.1,6.5,1.2,1.3,0.6,2.9,3.5,5.6,1.6,0.2,2.3,2.7,7.6
26.0,6,6.9,15.0,1.5,4.9,5.4,10.1,4.9,5.6,2.0,6.1,8.1,2.3,0.7,1.6,1.6,2.7,20.2
26.0,6,6.7,14.9,1.4,5.1,5.3,9.9,4.3,5.0,1.9,5.8,7.7,2.0,0.7,1.7,1.6,2.6,19.2
26.0,6,7.2,15.2,1.7,4.6,5.5,10.6,5.9,6.8,2.2,6.6,8.8,2.9,0.7,1.5,1.6,2.9,22.1
28.0,8,3.0,6.8,0.5,1.6,2.5,5.2,1.0,1.5,1.0,4.3,5.3,2.7,1.1,0.7,1.0,1.6,7.6
